Alejandra-C-Musc-ABC-L01
Gráfico creado el:2026-06-03 15:56:04.786
Registro en:2026-06-03 15:56:50.599
2 mseg/muestras
2 canales
EMG
mV
EMG Integrado
mV-sec
milliSec,CH1,CH40,
,210252 samples,210252 samples,
0,-0.0506592,0.000506592,
2,-0.0262451,0.000769043,
4,-0.0158691,0.000927734,
6,-0.0177002,0.00110474,
8,-0.0195313,0.00130005,
10,-0.0238037,0.00153809,
12,-0.0177002,0.00171509,
14,-0.0152588,0.00186768,
16,-0.0158691,0.00202637,
18,-0.00854492,0.00211182,
20,-0.012207,0.00223389,
22,-0.00976563,0.00233154,
24,-0.00366211,0.00236816,
26,-0.00427246,0.00241089,
28,0,0.00241089,
30,-0.00488281,0.00245972,
32,-0.00305176,0.00249023,
34,-0.00305176,0.00252075,
36,0,0.00252075,
38,-0.00244141,0.00254517,
40,-0.00610352,0.0026062,
42,-0.00244141,0.00263062,
44,-0.00183105,0.00264893,
46,-0.00549316,0.00270386,
48,0.000610352,0.00270996,
50,-0.00488281,0.00275879,
52,-0.000610352,0.00276489,
54,-0.00427246,0.00280762,
56,-0.00488281,0.00285645,
58,0.00427246,0.00289917,
60,-0.00488281,0.002948,
62,-0.00244141,0.00297241,
64,-0.000610352,0.00297852,
66,-0.00244141,0.00300293,
68,0.00305176,0.00303345,
70,0,0.00303345,
72,-0.0012207,0.00304565,
74,0.00305176,0.00307617,
76,-0.000610352,0.00308228,
78,0.00244141,0.00310669,
80,0,0.00310669,
82,0.0012207,0.0031189,
84,-0.00244141,0.00314331,
86,0.00183105,0.00316162,
88,-0.0012207,0.00317383,
90,-0.00366211,0.00321045,
92,0.000610352,0.00321655,
94,-0.0012207,0.00322876,
96,0.0012207,0.00324097,
98,-0.00488281,0.00328979,
100,-0.00244141,0.00331421,
102,0.0012207,0.00332642,
104,-0.00610352,0.00338745,
106,-0.00183105,0.00340576,
108,-0.00366211,0.00344238,
110,-0.00488281,0.00349121,
112,-0.00488281,0.00354004,
114,-0.00305176,0.00357056,
116,-0.00915527,0.00366211,
118,0.000610352,0.00366821,
120,-0.00427246,0.00371094,
122,0.00183105,0.00372925,
124,-0.000610352,0.00373535,
126,-0.00488281,0.00378418,
128,0,0.00378418,
130,0.00305176,0.0038147,
132,0.0012207,0.0038269,
134,-0.00488281,0.00387573,
136,0.00183105,0.00389404,
138,-0.0012207,0.00390625,
140,-0.010376,0.00401001,
142,0.00183105,0.00402832,
144,-0.00183105,0.00404663,
146,-0.00488281,0.00409546,
148,0,0.00409546,
150,-0.00915527,0.00418701,
152,-0.0012207,0.00419922,
154,-0.00793457,0.00427856,
156,-0.00366211,0.00431519,
158,0,0.00431519,
160,-0.0140381,0.00445557,
162,-0.00366211,0.00449219,
164,-0.00549316,0.00454712,
166,-0.00976563,0.00464478,
168,-0.000610352,0.00465088,
170,-0.00610352,0.00471191,
172,-0.0012207,0.00472412,
174,-0.00305176,0.00475464,
176,-0.00610352,0.00481567,
178,-0.0012207,0.00482788,
180,-0.00244141,0.00485229,
182,-0.00488281,0.00490112,
184,-0.00610352,0.00496216,
186,-0.00488281,0.00501099,
188,-0.00671387,0.00507813,
190,-0.012207,0.0052002,
192,-0.0012207,0.0052124,
194,-0.010376,0.00531616,
196,-0.00305176,0.00534668,
198,-0.00488281,0.00539551,
200,-0.00976563,0.00498657,
202,-0.000610352,0.00473022,
204,-0.00549316,0.00462646,
206,-0.00305176,0.00447998,
208,-0.00244141,0.00430908,
210,-0.00610352,0.00413208,
212,-0.00427246,0.0039978,
214,-0.00183105,0.00386353,
216,-0.00549316,0.00375977,
218,0.00183105,0.00369263,
220,-0.00305176,0.00360107,
222,-0.00244141,0.00352783,
224,-0.00183105,0.00350952,
226,-0.0012207,0.003479,
228,-0.00366211,0.00351562,
230,-0.00183105,0.00348511,
232,-0.00183105,0.0034729,
234,-0.00488281,0.00349121,
236,-0.00427246,0.00353394,
238,-0.00671387,0.00357666,
240,-0.00732422,0.00358887,
242,-0.00732422,0.0036377,
244,-0.00610352,0.00368042,
246,-0.00854492,0.00371094,
248,-0.00671387,0.00377197,
250,-0.00915527,0.0038147,
252,-0.00671387,0.00387573,
254,-0.0115967,0.00394897,
256,-0.010376,0.00400391,
258,-0.00610352,0.00402222,
260,-0.0170898,0.00414429,
262,-0.00732422,0.00419312,
264,-0.0140381,0.00432739,
266,-0.0158691,0.00446167,
268,-0.00488281,0.00447998,
270,-0.010376,0.00458374,
272,-0.00793457,0.00465088,
274,-0.00549316,0.00467529,
276,-0.00732422,0.00474243,
278,-0.00610352,0.00477905,
280,-0.00793457,0.0048584,
282,-0.00671387,0.00491333,
284,-0.00976563,0.00498657,
286,-0.00854492,0.00505371,
288,-0.00610352,0.00510254,
290,-0.010376,0.00516968,
292,-0.00671387,0.00523071,
294,-0.00549316,0.00527344,
296,-0.00305176,0.00529175,
298,-0.00671387,0.00531006,
300,-0.00976563,0.0053833,
302,-0.00305176,0.00540161,
304,-0.00671387,0.00540771,
306,-0.00915527,0.00548096,
308,-0.00427246,0.00548706,
310,-0.0109863,0.0055481,
312,-0.00427246,0.00554199,
314,-0.00732422,0.00558472,
316,-0.012207,0.00561523,
318,-0.0012207,0.00562134,
320,-0.00488281,0.00562744,
322,-0.00488281,0.00565796,
324,-0.00305176,0.00568237,
326,-0.00427246,0.00567627,
328,-0.000610352,0.00568237,
330,-0.00305176,0.00568237,
332,0.0012207,0.00568237,
334,-0.00549316,0.00568848,
336,-0.0012207,0.00568237,
338,-0.00549316,0.0057251,
340,-0.00976563,0.00571899,
342,0.00244141,0.0057251,
344,-0.00671387,0.00577393,
346,-0.00183105,0.00574341,
348,-0.00183105,0.00576172,
350,-0.00488281,0.00571899,
352,0.000610352,0.00571289,
354,-0.00427246,0.00567627,
356,-0.00366211,0.00567627,
358,0.00183105,0.00569458,
360,-0.00793457,0.00563354,
362,-0.00549316,0.00565186,
364,-0.00244141,0.00562134,
366,-0.00793457,0.00560303,
368,-0.00366211,0.00563354,
370,-0.00305176,0.00560303,
372,-0.00732422,0.00566406,
374,-0.00183105,0.00565186,
376,-0.00366211,0.00562744,
378,-0.00244141,0.00563965,
380,-0.00244141,0.00563965,
382,0,0.00559082,
384,-0.00183105,0.0055481,
386,-0.00366211,0.00553589,
388,0.000610352,0.00547485,
390,-0.00427246,0.00539551,
392,-0.00244141,0.00540771,
394,-0.00549316,0.00535889,
396,-0.000610352,0.00533447,
398,-0.00305176,0.00531616,
400,-0.00671387,0.00528564,
402,-0.00244141,0.00530396,
404,-0.00305176,0.00527954,
406,-0.00610352,0.00531006,
408,-0.0012207,0.00529785,
410,-0.00793457,0.00531616,
412,-0.00305176,0.00530396,
414,-0.00366211,0.00532227,
416,-0.00244141,0.00529175,
418,-0.00305176,0.00530396,
420,-0.00305176,0.00530396,
422,-0.000610352,0.00528564,
424,-0.000610352,0.00527344,
426,-0.00305176,0.00529175,
428,0.0012207,0.00526733,
430,-0.00244141,0.00527344,
432,0.0012207,0.00526733,
434,-0.00244141,0.00524292,
436,-0.000610352,0.0052063,
438,-0.00549316,0.00519409,
440,-0.00366211,0.00515747,
442,0.00610352,0.00514526,
444,-0.00244141,0.00510864,
446,0,0.00502319,
448,0.0012207,0.00496826,
450,-0.00183105,0.00489502,
452,0.00305176,0.0048584,
454,0.000610352,0.00474854,
456,0.000610352,0.00465088,
458,0.00183105,0.00460815,
460,-0.000610352,0.00444336,
462,-0.0012207,0.00438232,
464,-0.000610352,0.00424805,
466,0,0.00408936,
468,0.00366211,0.00407715,
470,-0.00427246,0.00401611,
472,0.0012207,0.00394897,
474,0,0.00389404,
476,0.000610352,0.0038269,
478,-0.00427246,0.00380859,
480,-0.00183105,0.00374756,
482,-0.00427246,0.00372314,
484,-0.00183105,0.0036438,
486,-0.00366211,0.00359497,
488,-0.00671387,0.00360107,
490,-0.0109863,0.00360718,
492,0.00183105,0.00355835,
494,-0.00549316,0.00355835,
496,-0.00305176,0.00355835,
498,-0.00427246,0.00353394,
500,-0.00549316,0.00349121,
502,-0.00305176,0.00349121,
504,-0.00488281,0.0034729,
506,-0.00366211,0.00341797,
508,-0.00183105,0.00339355,
510,-0.0134277,0.00341797,
512,-0.00305176,0.00340576,
514,-0.00488281,0.00338135,
516,-0.00793457,0.00333862,
518,-0.00488281,0.00337524,
520,-0.00427246,0.00336914,
522,-0.00854492,0.00340576,
524,-0.0012207,0.00338745,
526,-0.00854492,0.00343018,
528,-0.0012207,0.00343628,
530,-0.00854492,0.00349121,
532,-0.00488281,0.00352783,
534,-0.00732422,0.00354614,
536,-0.00305176,0.00356445,
538,-0.00610352,0.00357056,
540,-0.00915527,0.00356445,
542,-0.000610352,0.00354614,
544,-0.00793457,0.00355835,
546,-0.00732422,0.00361328,
548,-0.00366211,0.00363159,
550,-0.00854492,0.00366821,
552,-0.00366211,0.00369873,
554,-0.00793457,0.00373535,
556,-0.00793457,0.00377808,
558,-0.00427246,0.00380249,
560,-0.010376,0.0038269,
562,-0.00549316,0.0038269,
564,-0.00549316,0.00385742,
566,-0.010376,0.00388184,
568,0,0.00384521,
570,-0.00305176,0.00384521,
572,-0.00488281,0.0038208,
574,-0.00244141,0.0038269,
576,-0.00244141,0.0038147,
578,0.00183105,0.00380859,
580,-0.00366211,0.0038208,
582,-0.00244141,0.00384521,
584,-0.00366211,0.00386353,
586,-0.000610352,0.00383301,
588,0.000610352,0.00383301,
590,-0.00671387,0.00385742,
592,-0.00671387,0.00390015,
594,0,0.00384521,
596,-0.000610352,0.00384521,
598,-0.00305176,0.00384521,
600,-0.00488281,0.0038269,
602,0.000610352,0.00380859,
604,-0.00427246,0.0038208,
606,-0.00305176,0.00379028,
608,-0.00305176,0.00380859,
610,-0.00671387,0.00379639,
612,-0.00427246,0.00380859,
614,-0.00610352,0.00383301,
616,-0.00793457,0.00388794,
618,-0.00305176,0.00388794,
620,-0.00305176,0.00388794,
622,-0.00976563,0.00397949,
624,-0.00305176,0.00400391,
626,-0.00549316,0.00402832,
628,-0.00671387,0.00408325,
630,-0.00671387,0.00412598,
632,-0.00732422,0.00418701,
634,-0.010376,0.00426636,
636,-0.00549316,0.00431519,
638,-0.00671387,0.00432739,
640,-0.0109863,0.00440063,
642,-0.00671387,0.00440674,
644,-0.0128174,0.0045105,
646,-0.00549316,0.00456543,
648,-0.010376,0.00465698,
650,-0.0115967,0.00475464,
652,-0.00793457,0.00480347,
654,-0.00732422,0.00487061,
656,-0.00549316,0.00491943,
658,-0.00183105,0.00491943,
660,-0.0213623,0.00512695,
662,-0.00854492,0.0052002,
664,0.00366211,0.00523071,
666,0.00366211,0.00526733,
668,0.0012207,0.00524292,
670,-0.00793457,0.00527954,
672,-0.00183105,0.00528564,
674,0.0354004,0.00563965,
676,0.0292969,0.00592651,
678,-0.00671387,0.00595093,
680,-0.00305176,0.00596313,
682,0.0390625,0.00631104,
684,0.00427246,0.00633545,
686,-0.0305176,0.006604,
688,0.0250244,0.00678711,
690,0.0274658,0.0069519,
692,0.032959,0.00726318,
694,-0.0775146,0.0079834,
696,0.0384521,0.0083374,
698,-0.00488281,0.00834351,
700,0.0708008,0.00899658,
702,0.0744629,0.00971069,
704,-0.0457764,0.0101196,
706,0.0518799,0.0106018,
708,-0.101318,0.0115967,
710,0.0335693,0.0117981,
712,0.0378418,0.012146,
714,-0.0463867,0.012561,
716,-0.0311279,0.012793,
718,0.0726318,0.0134705,
720,0.0543213,0.0139709,
722,0.00610352,0.0139465,
724,0.0115967,0.0140503,
726,0.0634766,0.0145996,
728,-0.0317383,0.0149048,
730,-0.0994873,0.0158142,
732,0.0146484,0.0159119,
734,0.020752,0.0160461,
736,-0.0769043,0.0167847,
738,-0.0610352,0.017334,
740,-0.202637,0.0192688,
742,-0.0360107,0.0196228,
744,0.139771,0.0209412,
746,-0.000610352,0.020874,
748,-0.129395,0.0221313,
750,-0.13916,0.0234375,
752,0.00427246,0.0234436,
754,0.090332,0.0242676,
756,-0.223389,0.0264221,
758,0.043335,0.0268127,
760,0.0408936,0.0271179,
762,-0.224609,0.0293091,
764,-0.100098,0.0302551,
766,0.0616455,0.0307678,
768,0.0128174,0.030896,
770,0.0604248,0.0314697,
772,-0.0750732,0.0321716,
774,-0.0714111,0.0328613,
776,0.0585938,0.0334229,
778,0.0915527,0.0343201,
780,-0.0891113,0.0351746,
782,-0.0909424,0.0360596,
784,-0.0292969,0.0363159,
786,0.0592041,0.0369019,
788,-0.15686,0.0384644,
790,-0.164185,0.0400391,
792,0.012207,0.040094,
794,0.022583,0.0403198,
796,-0.0256348,0.0405701,
798,-0.119019,0.0417297,
800,0.00854492,0.0417664,
802,0.0250244,0.0420105,
804,0.00793457,0.0420471,
806,0.186768,0.0438843,
808,-0.043335,0.0442871,
810,-0.123901,0.045459,
812,0.0891113,0.0463074,
814,0.0976563,0.0472229,
816,-0.0360107,0.0475037,
818,-0.133057,0.0488037,
820,-0.0469971,0.0492432,
822,-0.0836182,0.0499817,
824,-0.00549316,0.0500061,
826,0.0390625,0.0503418,
828,0.0604248,0.0508789,
830,0.0836182,0.0516479,
832,-0.00488281,0.0516235,
834,-0.067749,0.0521973,
836,0.184326,0.0539856,
838,0.0244141,0.0541626,
840,0.0976563,0.0550293,
842,0.203857,0.0570007,
844,-0.17334,0.058606,
846,-0.177612,0.0603271,
848,0.150757,0.061731,
850,0.057373,0.0621887,
852,-0.0518799,0.0626282,
854,0.0762939,0.0633179,
856,-0.0390625,0.0636536,
858,-0.179443,0.0654297,
860,0.109253,0.0663086,
862,0.0561523,0.0667847,
864,0.108032,0.0678284,
866,0.110474,0.0688965,
868,-0.155029,0.0704346,
870,0.0842285,0.0711975,
872,0.0726318,0.0719055,
874,0.0250244,0.0718018,
876,0.0598145,0.0721069,
878,0.101929,0.0730591,
880,0.0622559,0.0736511,
882,0.10437,0.0743042,
884,-0.12207,0.0754822,
886,0.109253,0.0762695,
888,0.0830078,0.0768494,
890,0.106812,0.0776428,
892,0.140991,0.0787231,
894,-0.0933838,0.0788818,
896,0.0823975,0.0793213,
898,0.110474,0.0803772,
900,0.134277,0.081012,
902,0.0463867,0.0807312,
904,-0.0531006,0.0808044,
906,0.0567627,0.0808533,
908,0.0268555,0.0801086,
910,-0.0268555,0.0800415,
912,0.0579834,0.0802429,
914,0.0463867,0.0802429,
916,-0.090332,0.080835,
918,0.0640869,0.0807495,
920,0.0793457,0.0809998,
922,0.0769043,0.0817078,
924,0.126953,0.0828613,
926,0.0274658,0.0825012,
928,0.00244141,0.0822083,
930,-0.00793457,0.0812927,
932,0.202637,0.0831726,
934,0.00488281,0.0830139,
936,-0.045166,0.0826965,
938,-0.0109863,0.082196,
940,0.0134277,0.080304,
942,-0.00854492,0.0800293,
944,0,0.0786316,
946,0.00610352,0.0786865,
948,0.0201416,0.077594,
950,0.0689697,0.0768921,
952,0.134888,0.0781982,
954,-0.0915527,0.0782104,
956,0.148315,0.0774597,
958,0.195923,0.0789856,
960,-0.0836182,0.0794128,
962,-0.0195313,0.0773621,
964,0.0238037,0.0765991,
966,0.139771,0.0773804,
968,-0.158081,0.078833,
970,-0.0891113,0.0791199,
972,-0.00244141,0.0783936,
974,-0.0402832,0.0780823,
976,-0.0238037,0.0777344,
978,0.0152588,0.0769714,
980,0.00244141,0.0761047,
982,0.108643,0.0762817,
984,-0.0494385,0.0764832,
986,0.136108,0.0772522,
988,0.00244141,0.075708,
990,0.0268555,0.0743347,
992,0.0305176,0.0745178,
994,0.0164795,0.0744568,
996,-0.0128174,0.0743286,
998,-0.0506592,0.073645,
1000,0.119019,0.0747498,
1002,-0.00366211,0.0745361,
1004,-0.111694,0.0755737,
1006,0.0012207,0.0737183,
1008,0.0860596,0.0741455,
1010,-0.0354004,0.0732605,
1012,0.101318,0.0733826,
1014,0.106201,0.073468,
1016,-0.325317,0.0763611,
1018,0.130615,0.0763367,
1020,0.0970459,0.0768372,
1022,-0.00244141,0.0760254,
1024,-0.00793457,0.0760498,
1026,-0.106201,0.0767212,
1028,0.0231934,0.0763489,
1030,-0.00488281,0.0755615,
1032,-0.0396729,0.0759094,
1034,0.0408936,0.0756409,
1036,0.215454,0.0759521,
1038,-0.153809,0.0772461,
1040,-0.101318,0.0772827,
1042,0.0384521,0.0756287,
1044,0.0408936,0.0743042,
1046,-0.0494385,0.0730225,
1048,-0.0567627,0.0720825,
1050,-0.0360107,0.0718689,
1052,0.010376,0.0714539,
1054,-0.0354004,0.0710449,
1056,-0.0933838,0.0715881,
1058,0.0354004,0.0701477,
1060,0.0354004,0.0694092,
1062,0.00183105,0.068866,
1064,0.0500488,0.0682861,
1066,-0.228882,0.0694702,
1068,0.0158691,0.0680786,
1070,0.0189209,0.0674255,
1072,-0.0579834,0.0672791,
1074,0.166626,0.0686951,
1076,-0.113525,0.0692322,
1078,0.0811768,0.0690247,
1080,-0.125122,0.0696533,
1082,-0.00549316,0.0686646,
1084,0.0665283,0.0681091,
1086,-0.00610352,0.0670776,
1088,-0.0836182,0.0670837,
1090,0.0189209,0.0662048,
1092,0.0500488,0.0652954,
1094,-0.00549316,0.0644165,
1096,-0.172119,0.0653137,
1098,0.106201,0.065271,
1100,0.0708008,0.0646362,
1102,-0.0970459,0.0651428,
1104,0.0994873,0.0656067,
1106,-0.159912,0.0666382,
1108,-0.0714111,0.0670837,
1110,0.0262451,0.0670776,
1112,-0.012207,0.0666199,
1114,-0.0292969,0.066449,
1116,-0.0671387,0.066217,
1118,-0.0354004,0.0659302,
1120,0.0976563,0.0661133,
1122,-0.0799561,0.0661438,
1124,0.0244141,0.0651184,
1126,0.00549316,0.0648987,
1128,-0.00732422,0.0649475,
1130,0.108032,0.0659485,
1132,-0.159912,0.0655212,
1134,0.0292969,0.0657654,
1136,0.0457764,0.0657715,
1138,-0.0317383,0.065979,
1140,-0.0164795,0.0660095,
1142,-0.117798,0.0671021,
1144,0.0683594,0.0677856,
1146,0.0299072,0.0680237,
1148,-0.0378418,0.0682007,
1150,-0.0231934,0.0677429,
1152,-0.0744629,0.0671387,
1154,0.128784,0.067511,
1156,-0.192261,0.0679504,
1158,0.111694,0.0671082,
1160,0.0634766,0.0669067,
1162,0.0231934,0.0669434,
1164,-0.134277,0.0680481,
1166,0.0128174,0.0667786,
1168,0.0299072,0.0654968,
1170,-0.0537109,0.0651428,
1172,0.133057,0.066449,
1174,-0.126953,0.0673157,
1176,-0.203857,0.0691162,
1178,0.0567627,0.0695313,
1180,0.17395,0.0712463,
1182,-0.215454,0.0723145,
1184,-0.0152588,0.0719727,
1186,0.0634766,0.0712463,
1188,-0.116577,0.0723877,
1190,0.0622559,0.0727417,
1192,0.128174,0.0737183,
1194,-0.135498,0.0749084,
1196,0.122681,0.0760071,
1198,-0.0891113,0.0763916,
1200,-0.0219727,0.0754211,
1202,-0.0653076,0.0760376,
1204,0.0195313,0.075116,
1206,-0.0561523,0.0756653,
1208,-0.10376,0.0758423,
1210,0.012207,0.0756104,
1212,-0.164185,0.076239,
1214,0.0415039,0.075592,
1216,0.0701904,0.0730408,
1218,0.0836182,0.0725708,
1220,-0.166626,0.0732666,
1222,0.0183105,0.0734253,
1224,0.0280762,0.0736267,
1226,-0.00427246,0.0726074,
1228,0.0201416,0.0725769,
1230,-0.12207,0.0737488,
1232,-0.0244141,0.0735962,
1234,0.00244141,0.0732117,
1236,-0.0701904,0.071759,
1238,-0.0427246,0.0706482,
1240,-0.0402832,0.0700378,
1242,0.0891113,0.0705444,
1244,0.228271,0.0724182,
1246,-0.467529,0.0765991,
1248,0.0823975,0.0768555,
1250,0.140381,0.0778992,
1252,-0.0335693,0.0781311,
1254,0.00488281,0.0778259,
1256,-0.0335693,0.0772278,
1258,-0.0610352,0.0774841,
1260,-0.0140381,0.0772705,
1262,-0.00854492,0.0773376,
1264,0.0897217,0.0777344,
1266,-0.108643,0.076532,
1268,0.0946045,0.0773193,
1270,-0.117798,0.0783081,
1272,-0.0109863,0.0778381,
1274,0.0823975,0.0769958,
1276,-0.101318,0.0768738,
1278,-0.0158691,0.0762207,
1280,-0.0463867,0.0754333,
1282,-0.0311279,0.0756897,
1284,-0.00549316,0.0750793,
1286,-0.0714111,0.0757324,
1288,-0.00915527,0.0749878,
1290,0.0506592,0.0753052,
1292,-0.000610352,0.0748108,
1294,-0.0958252,0.0757141,
1296,0.0292969,0.0742859,
1298,0.0543213,0.0737671,
1300,0.0909424,0.0739685,
1302,-0.125122,0.0742493,
1304,0.114136,0.0743958,
1306,-0.0250244,0.0730469,
1308,0.0616455,0.0729492,
1310,-0.0646973,0.0733337,
1312,0.0140381,0.0733521,
1314,-0.0628662,0.0736877,
1316,0.00183105,0.0730347,
1318,0.0360107,0.0730408,
1320,-0.043335,0.0724976,
1322,-0.120239,0.0729004,
1324,0.0177002,0.0728333,
1326,0.0177002,0.0729553,
1328,0.010376,0.0729858,
1330,-0.0610352,0.0725159,
1332,0.0817871,0.0717346,
1334,0.0549316,0.071991,
1336,-0.237427,0.0739075,
1338,0.0634766,0.0742249,
1340,0.0518799,0.0745789,
1342,-0.00915527,0.0734924,
1344,-0.0933838,0.0737427,
1346,-0.0231934,0.0736755,
1348,0.119019,0.0744873,
1350,-0.115967,0.075415,
1352,-0.0311279,0.0749817,
1354,0.0231934,0.0739258,
1356,0.0567627,0.0725708,
1358,-0.0146484,0.0716003,
1360,-0.045166,0.0714172,
1362,-0.00854492,0.0712708,
1364,0.0366211,0.0702942,
1366,0.200195,0.072168,
1368,-0.203857,0.0739075,
1370,-0.128784,0.0746582,
1372,0.160522,0.0749329,
1374,-0.0390625,0.074054,
1376,-0.078125,0.0727966,
1378,0.119019,0.0734192,
1380,-0.220337,0.0738831,
1382,0.0244141,0.0719727,
1384,0.109863,0.0729187,
1386,-0.180054,0.0740845,
1388,0.0292969,0.0732117,
1390,0.0152588,0.0727417,
1392,-0.0195313,0.0716553,
1394,-0.0708008,0.0710083,
1396,-0.0518799,0.0703003,
1398,-0.0177002,0.0695862,
1400,0.0164795,0.0695313,
1402,0.00244141,0.0689026,
1404,0.0518799,0.0692261,
1406,0.0335693,0.0690002,
1408,-0.0726318,0.068689,
1410,0.202026,0.0705872,
1412,-0.148315,0.0704285,
1414,0.0518799,0.0705322,
1416,0.0366211,0.0701965,
1418,-0.0164795,0.0695251,
1420,0.0177002,0.0680359,
1422,-0.13855,0.0692383,
1424,-0.0152588,0.0691101,
1426,-0.00671387,0.0691345,
1428,-0.057373,0.0695068,
1430,0.108032,0.0693665,
1432,-0.0549316,0.0696716,
1434,-0.142822,0.0710754,
1436,0.090332,0.0712769,
1438,0.127563,0.0721252,
1440,0.0524902,0.0722473,
1442,-0.111694,0.0724731,
1444,0.043335,0.0706238,
1446,-0.0921631,0.0668701,
1448,-0.010376,0.0661499,
1450,-0.0134277,0.0648804,
1452,-0.0463867,0.0650085,
1454,-0.0463867,0.0654236,
1456,0.0183105,0.065271,
1458,-0.0384521,0.0650452,
1460,-0.0360107,0.0652649,
1462,0.00854492,0.0652649,
1464,0.0286865,0.0646545,
1466,0.0500488,0.0640686,
1468,0.109863,0.0642212,
1470,-0.219727,0.0652405,
1472,0.0518799,0.0656494,
1474,0.151367,0.0663391,
1476,-0.168457,0.0670105,
1478,0.0115967,0.0669678,
1480,-0.0872803,0.0673767,
1482,0,0.0670654,
1484,-0.0543213,0.0675537,
1486,-0.0506592,0.0673462,
1488,0.0341797,0.0675964,
1490,0.057373,0.0676636,
1492,-0.220337,0.0698608,
1494,0.10376,0.0699402,
1496,0.107422,0.0707214,
1498,-0.112305,0.0713013,
1500,0.0183105,0.070575,
1502,-0.0421143,0.0697449,
1504,0.0134277,0.0687378,
1506,-0.0189209,0.0686768,
1508,-0.0500488,0.0685608,
1510,0.00915527,0.0680054,
1512,-0.000610352,0.0678711,
1514,0.00244141,0.0672668,
1516,0.000610352,0.0672546,
1518,0.0134277,0.0670288,
1520,0.0317383,0.0669128,
1522,0.0793457,0.0665039,
1524,0.0872803,0.0671997,
1526,-0.152588,0.0685486,
1528,0.0415039,0.0688599,
1530,0.0427246,0.0686768,
1532,-0.0189209,0.0680481,
1534,-0.0476074,0.0679749,
1536,-0.0280762,0.0658813,
1538,-0.0714111,0.0659607,
1540,-0.012207,0.065564,
1542,0.00854492,0.0655579,
1544,0.00366211,0.0646606,
1546,0.00366211,0.0644653,
1548,0.00366211,0.0633118,
1550,0.0012207,0.0621643,
1552,0.00183105,0.0618713,
1554,0.00183105,0.0616577,
1556,0.00244141,0.0611145,
1558,0.00610352,0.0610291,
1560,-0.00244141,0.0606018,
1562,0.00549316,0.0605713,
1564,0.00305176,0.0602356,
1566,-0.0012207,0.0582458,
1568,0.00671387,0.0562744,
1570,0.00488281,0.0550354,
1572,0.00427246,0.0534729,
1574,0.00427246,0.053125,
1576,0.00854492,0.0524292,
1578,0.00183105,0.0512573,
1580,0.00244141,0.0490784,
1582,-0.00732422,0.0489075,
1584,0.00183105,0.0478271,
1586,-0.00366211,0.0460632,
1588,-0.00610352,0.0458313,
1590,-0.00976563,0.0457764,
1592,-0.00427246,0.0456238,
1594,-0.00488281,0.0449646,
1596,-0.00305176,0.0444763,
1598,-0.0012207,0.0443115,
1600,-0.00610352,0.0442078,
1602,-0.00305176,0.0442139,
1604,-0.00854492,0.0437805,
1606,-0.00854492,0.0435303,
1608,-0.00549316,0.0428589,
1610,-0.0152588,0.0409912,
1612,-0.0128174,0.0396362,
1614,-0.010376,0.0392212,
1616,-0.0177002,0.039032,
1618,-0.0146484,0.0390137,
1620,-0.0146484,0.0389832,
1622,-0.0177002,0.0377747,
1624,-0.0189209,0.0378113,
1626,-0.0195313,0.0379395,
1628,-0.0170898,0.0375366,
1630,-0.0201416,0.0366577,
1632,-0.0244141,0.0363525,
1634,-0.0238037,0.0351624,
1636,-0.0244141,0.0345032,
1638,-0.0256348,0.0334839,
1640,-0.0274658,0.0332336,
1642,-0.0286865,0.0324036,
1644,-0.0299072,0.0322693,
1646,-0.0280762,0.0316284,
1648,-0.0286865,0.0318115,
1650,-0.0341797,0.032019,
1652,-0.0299072,0.0318542,
1654,-0.032959,0.03172,
1656,-0.0360107,0.031897,
1658,-0.0305176,0.0318176,
1660,-0.0402832,0.0318604,
1662,-0.0372314,0.0321472,
1664,-0.0384521,0.0322449,
1666,-0.0415039,0.0321594,
1668,-0.0378418,0.0314392,
1670,-0.0408936,0.0296509,
1672,-0.0402832,0.0295349,
1674,-0.0415039,0.0284363,
1676,-0.0439453,0.0271912,
1678,-0.0396729,0.0274719,
1680,-0.0427246,0.0270264,
1682,-0.043335,0.0274597,
1684,-0.0445557,0.0273621,
1686,-0.0408936,0.0272644,
1688,-0.0427246,0.0273499,
1690,-0.045166,0.0272278,
1692,-0.0421143,0.0254456,
1694,-0.0402832,0.0248108,
1696,-0.0372314,0.0241089,
1698,-0.0402832,0.0233887,
1700,-0.0427246,0.0236328,
1702,-0.0384521,0.0235962,
1704,-0.0402832,0.0238647,
1706,-0.0384521,0.0240601,
1708,-0.0335693,0.0238953,
1710,-0.0378418,0.0241821,
1712,-0.0354004,0.02453,
1714,-0.0488281,0.0249939,
1716,-0.0372314,0.0253601,
1718,-0.0134277,0.0253601,
1720,-0.0268555,0.0253113,
1722,-0.0610352,0.0251282,
1724,-0.0292969,0.0245483,
1726,-0.0341797,0.0233643,
1728,-0.0299072,0.0232483,
1730,-0.03479,0.0231689,
1732,-0.0396729,0.0233765,
1734,-0.0427246,0.0233276,
1736,-0.0305176,0.0233521,
1738,-0.0305176,0.0229431,
1740,-0.0378418,0.0231995,
1742,-0.0256348,0.0233704,
1744,0.0250244,0.023584,
1746,-0.00854492,0.0236328,
1748,-0.078125,0.0243774,
1750,-0.0286865,0.0246521,
1752,-0.0012207,0.024646,
1754,-0.0299072,0.0249268,
1756,-0.0476074,0.0253784,
1758,-0.0518799,0.0258362,
1760,-0.0500488,0.0263123,
1762,-0.0378418,0.0266357,
1764,-0.0323486,0.0269287,
1766,-0.0299072,0.0272156,
1768,-0.0213623,0.0273621,
1770,-0.0201416,0.0275146,
1772,-0.022583,0.0276978,
1774,-0.0238037,0.0278931,
1776,-0.020752,0.0280151,
1778,-0.022583,0.0282227,
1780,-0.0219727,0.028418,
1782,-0.022583,0.0285706,
1784,-0.0244141,0.0287964,
1786,-0.0134277,0.028894,
1788,-0.00915527,0.0289246,
1790,-0.0262451,0.0290894,
1792,-0.00854492,0.0291321,
1794,-0.0305176,0.0293884,
1796,-0.010376,0.0294617,
1798,-0.0189209,0.0296387,
1800,-0.0311279,0.0298889,
1802,-0.0262451,0.0301208,
1804,-0.0323486,0.0303589,
1806,-0.0250244,0.0305237,
1808,-0.0158691,0.0306274,
1810,-0.0262451,0.0307373,
1812,-0.0323486,0.0309326,
1814,-0.00488281,0.0308777,
1816,-0.0201416,0.0309021,
1818,-0.0183105,0.0309387,
1820,-0.0170898,0.0309631,
1822,-0.0201416,0.0309875,
1824,-0.0183105,0.0309814,
1826,-0.0201416,0.0309875,
1828,-0.00854492,0.0309021,
1830,-0.010376,0.0308044,
1832,-0.0317383,0.0308777,
1834,-0.0134277,0.0307739,
1836,-0.00610352,0.0305908,
1838,-0.0152588,0.0304871,
1840,-0.0164795,0.0303772,
1842,-0.0201416,0.0302917,
1844,-0.0158691,0.0301514,
1846,-0.012207,0.0299927,
1848,-0.0128174,0.029834,
1850,-0.0177002,0.0296692,
1852,-0.0146484,0.0295166,
1854,-0.0115967,0.029303,
1856,-0.0164795,0.0291077,
1858,-0.0128174,0.0289307,
1860,-0.0164795,0.0286926,
1862,-0.0140381,0.0284607,
1864,-0.012207,0.0281982,
1866,-0.0134277,0.0279175,
1868,-0.00427246,0.0275818,
1870,-0.0012207,0.0271851,
1872,-0.0158691,0.0269409,
1874,-0.0152588,0.0266785,
1876,-0.00488281,0.0262878,
1878,-0.00976563,0.0259888,
1880,-0.00976563,0.0256592,
1882,-0.012207,0.0253479,
1884,-0.0158691,0.025061,
1886,-0.000610352,0.0246582,
1888,-0.00305176,0.0242615,
1890,0.0268555,0.0240784,
1892,0.00549316,0.0237122,
1894,-0.0305176,0.0236145,
1896,-0.012207,0.0233643,
1898,0.0170898,0.0231323,
1900,-0.0140381,0.0228455,
1902,-0.0238037,0.022699,
1904,-0.0317383,0.0226135,
1906,-0.0262451,0.0224915,
1908,-0.0164795,0.0223206,
1910,-0.0158691,0.0221008,
1912,-0.00915527,0.0218384,
1914,-0.00732422,0.0214233,
1916,-0.00915527,0.0211426,
1918,0.012207,0.0211304,
1920,-0.00732422,0.0209351,
1922,-0.0164795,0.0204895,
1924,0.00732422,0.0202698,
1926,-0.00610352,0.019989,
1928,-0.00854492,0.0197754,
1930,-0.00793457,0.0195068,
1932,-0.00427246,0.0191528,
1934,-0.00854492,0.018811,
1936,-0.0109863,0.0186157,
1938,-0.0115967,0.0184265,
1940,-0.00488281,0.0180969,
1942,-0.00183105,0.0178589,
1944,-0.00610352,0.0176697,
1946,-0.00915527,0.0176758,
1948,-0.00915527,0.0169861,
1950,-0.0134277,0.0168335,
1952,-0.00793457,0.0169006,
1954,-0.0134277,0.0167358,
1956,-0.00793457,0.0163391,
1958,-0.00915527,0.0159119,
1960,-0.00854492,0.0154968,
1962,0.00427246,0.0151611,
1964,-0.0164795,0.0150024,
1966,-0.0140381,0.0148437,
1968,0.00854492,0.0147156,
1970,-0.00183105,0.0145325,
1972,-0.00671387,0.0143738,
1974,-0.012207,0.0142578,
1976,-0.00244141,0.0140747,
1978,0.012207,0.0139709,
1980,-0.0012207,0.0137634,
1982,0.00610352,0.0135986,
1984,0.0146484,0.013501,
1986,-0.000610352,0.0133728,
1988,-0.0213623,0.0134949,
1990,-0.00915527,0.013324,
1992,-0.0012207,0.0132507,
1994,-0.0158691,0.0131042,
1996,-0.0183105,0.0131836,
1998,-0.0274658,0.013269,
2000,-0.0152588,0.0131104,
2002,-0.00610352,0.0129089,
2004,-0.00671387,0.0126526,
2006,-0.00793457,0.0124817,
2008,-0.00488281,0.0123718,
2010,-0.000610352,0.0121155,
2012,0.00183105,0.0118103,
2014,-0.0256348,0.0120178,
2016,-0.00366211,0.011853,
2018,-0.000610352,0.011676,
2020,-0.00793457,0.0115845,
2022,-0.0152588,0.0115356,
2024,-0.0128174,0.0114807,
2026,-0.00610352,0.0113403,
2028,-0.0134277,0.0113892,
2030,-0.00366211,0.011322,
2032,-0.00427246,0.0110474,
2034,-0.00915527,0.0110046,
2036,-0.00366211,0.0109802,
2038,-0.00671387,0.0108948,
2040,0.00915527,0.0108215,
2042,0.0292969,0.0109131,
2044,-0.012207,0.0108765,
2046,-0.0317383,0.0110718,
2048,0.00183105,0.0109619,
2050,0.0109863,0.0108948,
2052,0.0189209,0.0109375,
2054,-0.0292969,0.0111145,
2056,-0.055542,0.0115051,
2058,-0.00366211,0.0114136,
2060,-0.00244141,0.0112732,
2062,0.0012207,0.011145,
2064,-0.00549316,0.0110779,
2066,-0.0231934,0.0111755,
2068,0.0762939,0.0118958,
2070,-0.00732422,0.0119568,
2072,-0.0732422,0.0125305,
2074,0.0616455,0.0129944,
2076,0.0402832,0.0133484,
2078,-0.0463867,0.0137146,
2080,-0.0683594,0.0143005,
2082,0.0164795,0.0143433,
2084,0.0708008,0.0148926,
2086,0.113525,0.0160217,
2088,-0.0476074,0.0164673,
2090,-0.0280762,0.0164795,
2092,-0.0183105,0.0166077,
2094,0.135498,0.0176575,
2096,0.123901,0.0187744,
2098,-0.0158691,0.0187622,
2100,0.0445557,0.0190674,
2102,0.00732422,0.0189026,
2104,-0.119629,0.0197815,
2106,-0.0537109,0.0200562,
2108,0.0292969,0.0201843,
2110,-0.0518799,0.0205444,
2112,-0.163574,0.0220886,
2114,-0.133057,0.0233459,
2116,-0.0567627,0.023822,
2118,-0.0604248,0.0243042,
2120,-0.0372314,0.0246033,
2122,-0.0396729,0.0248352,
2124,-0.0152588,0.0249146,
2126,0.130005,0.0261536,
2128,0.00427246,0.0261108,
2130,0.043335,0.0264648,
2132,0.0775146,0.0271973,
2134,-0.0769043,0.0278809,
2136,0.112305,0.028894,
2138,0.145874,0.0302368,
2140,0.0164795,0.0303528,
2142,-0.159912,0.0319336,
2144,-0.24292,0.0343018,
2146,0.0335693,0.0345459,
2148,0.140991,0.0358643,
2150,-0.118408,0.0369141,
2152,-0.368042,0.0405151,
2154,-0.0726318,0.0411072,
2156,0.0262451,0.0412903,
2158,-0.0183105,0.0413818,
2160,-0.0445557,0.0417419,
2162,0.0360107,0.0420593,
2164,-0.167236,0.0435669,
2166,-0.143433,0.0448608,
2168,0.0469971,0.0452454,
2170,0.0415039,0.0456421,
2172,0.0195313,0.0457703,
2174,-0.0933838,0.046582,
2176,-0.169067,0.0482483,
2178,0.0958252,0.0490845,
2180,0.120239,0.0502747,
2182,-0.153198,0.0517456,
2184,-0.0756836,0.052356,
2186,0.0604248,0.0529541,
2188,-0.0189209,0.0529297,
2190,-0.0213623,0.0530518,
2192,-0.0494385,0.0535339,
2194,-0.010376,0.053479,
2196,0.0933838,0.0542297,
2198,0.0604248,0.0545593,
2200,0.0390625,0.0547974,
2202,-0.0012207,0.0547485,
2204,0.032959,0.055011,
2206,0.0750732,0.0556824,
2208,0.0854492,0.056488,
2210,0.0689697,0.0571716,
2212,-0.0170898,0.0573242,
2214,0.0354004,0.0574219,
2216,-0.107422,0.0584595,
2218,0.134888,0.0598022,
2220,-0.0292969,0.0600159,
2222,-0.0946045,0.0608093,
2224,-0.0299072,0.0609802,
2226,0.0140381,0.0610596,
2228,-0.0354004,0.0612793,
2230,-0.0476074,0.0617188,
2232,0.020752,0.0618835,
2234,0.15564,0.0633484,
2236,-0.0457764,0.0637695,
2238,0.00854492,0.0637878,
2240,0.17395,0.0654358,
2242,0.0689697,0.0658325,
2244,-0.00854492,0.0657959,
2246,-0.0933838,0.0664124,
2248,0.0695801,0.0670898,
2250,0.112305,0.068103,
2252,0.0445557,0.0683594,
2254,-0.0878906,0.0689453,
2256,-0.0183105,0.068573,
2258,0.107422,0.0696106,
2260,-0.00183105,0.0696045,
2262,-0.00427246,0.069635,
2264,0.112915,0.0707092,
2266,-0.0341797,0.0708191,
2268,-0.0415039,0.0704712,
2270,0.0811768,0.0712097,
2272,-0.00549316,0.0705322,
2274,0,0.0699158,
2276,0.0195313,0.0697083,
2278,0.0366211,0.0696106,
2280,0.0793457,0.0697205,
2282,-0.0402832,0.0699585,
2284,0.189819,0.0711487,
2286,0.0384521,0.0703979,
2288,-0.0976563,0.0708984,
2290,0.15625,0.0721802,
2292,0.0305176,0.0723022,
2294,0.0384521,0.0713318,
2296,-0.115356,0.0712463,
2298,0.0585938,0.0716736,
2300,0.010376,0.0713318,
2302,0.0512695,0.0717712,
2304,0.0964355,0.0715393,
2306,-0.157471,0.0725769,
2308,0.106201,0.0733459,
2310,-0.00854492,0.0729126,
2312,0.00976563,0.0713745,
2314,0.0488281,0.0705322,
2316,-0.0933838,0.0708984,
2318,-0.0341797,0.070636,
2320,0.0494385,0.0707581,
2322,0.012207,0.0704834,
2324,-0.0341797,0.0706726,
2326,0.0689697,0.0700623,
2328,-0.0390625,0.0704102,
2330,0.00427246,0.0700195,
2332,-0.00671387,0.0693115,
2334,0.00793457,0.0686218,
2336,0.0628662,0.0681274,
2338,0.0665283,0.067334,
2340,0.0128174,0.0672974,
2342,0.0909424,0.0666077,
2344,-0.0177002,0.0643555,
2346,0.0244141,0.0642639,
2348,0,0.062854,
2350,0.0274658,0.0619446,
2352,0.0372314,0.0586365,
2354,-0.0799561,0.0587097,
2356,-0.0256348,0.0587036,
2358,-0.0482178,0.0590027,
2360,0.0335693,0.0588928,
2362,-0.0494385,0.0590271,
2364,0.0250244,0.057605,
2366,-0.078125,0.0569519,
2368,0.0360107,0.056842,
2370,0.00671387,0.0564941,
2372,-0.0787354,0.0570862,
2374,0.03479,0.0565002,
2376,-0.0256348,0.0550659,
2378,0.0512695,0.0546204,
2380,-0.00976563,0.0535156,
2382,0.03479,0.0523315,
2384,-0.0537109,0.0521118,
2386,0.0250244,0.0517578,
2388,-0.0427246,0.0519958,
2390,0.0305176,0.0520874,
2392,-0.020752,0.0518005,
2394,0.0579834,0.0522766,
2396,0.0262451,0.0516052,
2398,-0.0921631,0.0519226,
2400,0.103149,0.0525635,
2402,0.100098,0.0535522,
2404,0.0238037,0.0534607,
2406,0.0897217,0.0536072,
2408,-0.20813,0.054834,
2410,-0.00244141,0.0541687,
2412,0.0238037,0.0542358,
2414,-0.0268555,0.0541504,
2416,-0.0787354,0.0538635,
2418,-0.0469971,0.0529846,
2420,-0.109863,0.0537903,
2422,0.0469971,0.0533142,
2424,0.032959,0.0533447,
2426,-0.043335,0.0536377,
2428,0.0756836,0.0540405,
2430,-0.0653076,0.0542175,
2432,0.0164795,0.0541748,
2434,0.0146484,0.0527649,
2436,-0.00793457,0.0523865,
2438,-0.0408936,0.05271,
2440,-0.0372314,0.0513428,
2442,0.0604248,0.0512573,
2444,0.0250244,0.0514221,
2446,0.0292969,0.0507813,
2448,-0.0354004,0.0504395,
2450,0.00671387,0.0493835,
2452,0.111694,0.0500549,
2454,0.107422,0.0502502,
2456,-0.0982666,0.0510498,
2458,-0.043335,0.0504089,
2460,0.0628662,0.0510193,
2462,-0.0268555,0.0512451,
2464,-0.0494385,0.0506104,
2466,-0.0317383,0.0505859,
2468,-0.0549316,0.0507202,
2470,0.119629,0.0511047,
2472,0.0921631,0.0519714,
2474,-0.325928,0.0552307,
2476,0.109253,0.0561279,
2478,0.0683594,0.0564453,
2480,-0.00549316,0.0557068,
2482,-0.0604248,0.0559082,
2484,-0.057373,0.0545837,
2486,-0.010376,0.054303,
2488,0.0866699,0.0541931,
2490,-0.0415039,0.0530457,
2492,0.0488281,0.0532288,
2494,0.135498,0.0541992,
2496,0.220337,0.055249,
2498,-0.205078,0.0567139,
2500,-0.0933838,0.0575439,
2502,0.140381,0.0584351,
2504,-0.0646973,0.0581177,
2506,-0.101929,0.0575623,
2508,-0.0897217,0.0573975,
2510,-0.0958252,0.0582703,
2512,-0.0524902,0.0586975,
2514,-0.0189209,0.0583984,
2516,0.065918,0.0581238,
2518,0.105591,0.0588379,
2520,-0.152588,0.0598694,
2522,0.0628662,0.060376,
2524,0.0891113,0.0609253,
2526,-0.0250244,0.0604858,
2528,-0.0744629,0.0608398,
2530,0.0439453,0.0612366,
2532,-0.0708008,0.0618774,
2534,-0.00183105,0.0618164,
2536,0.122681,0.0624146,
2538,0.0292969,0.0620422,
2540,-0.187378,0.0637878,
2542,0.0567627,0.063446,
2544,0.0506592,0.0637756,
2546,-0.00488281,0.0635803,
2548,-0.0634766,0.0642151,
2550,-0.0561523,0.064502,
2552,0.0238037,0.0643677,
2554,0.0543213,0.0641113,
2556,0.0604248,0.0644592,
2558,-0.12085,0.0651855,
2560,0.043335,0.0652832,
2562,0.00793457,0.0648682,
2564,0,0.0646179,
2566,-0.0146484,0.0639832,
2568,-0.00854492,0.0637085,
2570,0.0109863,0.0637512,
2572,-0.0134277,0.0630981,
2574,-0.0866699,0.0636169,
2576,0.0653076,0.0640137,
2578,0.0213623,0.0637146,
2580,-0.0543213,0.0641602,
2582,0.00793457,0.0638916,
2584,-0.0195313,0.0635498,
2586,0.0549316,0.0638489,
2588,0.158081,0.0650024,
2590,-0.116577,0.065863,
2592,-0.110474,0.0667603,
2594,0.108643,0.0672668,
2596,0.00976563,0.0671021,
2598,-0.0500488,0.0666809,
2600,-0.0756836,0.0664063,
2602,-0.0323486,0.0657288,
2604,-0.0457764,0.0659485,
2606,0.00366211,0.0650879,
2608,0.0909424,0.063916,
2610,-0.0872803,0.0647644,
2612,0.144043,0.0659668,
2614,-0.00793457,0.0657776,
2616,-0.0415039,0.0654053,
2618,-0.0115967,0.0650513,
2620,-0.0469971,0.0644226,
2622,-0.0250244,0.0642029,
2624,-0.0378418,0.0642517,
2626,-0.0494385,0.0643127,
2628,-0.0402832,0.0639587,
2630,-0.0292969,0.0635986,
2632,-0.020752,0.0636414,
2634,0.0158691,0.0636536,
2636,0.0512695,0.0640869,
2638,0.133667,0.0650146,
2640,-0.172729,0.0663696,
2642,0.00427246,0.0658081,
2644,0.0799561,0.0663574,
2646,0.00671387,0.0661316,
2648,-0.0286865,0.0660645,
2650,-0.0543213,0.0665405,
2652,-0.0213623,0.0656372,
2654,-0.00854492,0.0646484,
2656,-0.012207,0.0637878,
2658,-0.012207,0.0634766,
2660,0.00793457,0.0629272,
2662,0.00366211,0.0626953,
2664,-0.00244141,0.0622253,
2666,-0.00915527,0.0619995,
2668,0.0268555,0.0617188,
2670,0.0384521,0.060907,
2672,-0.022583,0.0602112,
2674,0.0213623,0.0571655,
2676,-0.022583,0.0562988,
2678,0.098877,0.056604,
2680,-0.0177002,0.0567261,
2682,-0.0787354,0.0569092,
2684,-0.0201416,0.0565369,
2686,0.010376,0.0565369,
2688,-0.0354004,0.0560242,
2690,-0.043335,0.0560425,
2692,-0.045166,0.0560059,
2694,-0.0299072,0.05495,
2696,-0.0140381,0.052887,
2698,-0.00732422,0.0509094,
2700,-0.0012207,0.0499878,
2702,0.00183105,0.0486023,
2704,0.000610352,0.0479614,
2706,-0.000610352,0.0469482,
2708,-0.00183105,0.0460693,
2710,-0.00549316,0.045166,
2712,0.010376,0.0447449,
2714,0.0311279,0.0448669,
2716,0.00854492,0.0442932,
2718,-0.0695801,0.0439331,
2720,0.0244141,0.0426514,
2722,0.00854492,0.0421082,
2724,-0.0109863,0.0413269,
2726,-0.022583,0.0413025,
2728,-0.0177002,0.0407349,
2730,-0.0115967,0.0404114,
2732,-0.00671387,0.0397705,
2734,-0.00305176,0.0397827,
2736,-0.000610352,0.038562,
2738,-0.0012207,0.0382813,
2740,-0.00488281,0.0364563,
2742,-0.00244141,0.0359131,
2744,-0.00305176,0.035437,
2746,0.00366211,0.0354248,
2748,-0.00366211,0.0348267,
2750,-0.00488281,0.034314,
2752,0.00244141,0.0341003,
2754,-0.00244141,0.0335815,
2756,-0.00549316,0.0330322,
2758,-0.0012207,0.0318359,
2760,-0.00610352,0.0314636,
2762,-0.00549316,0.0314392,
2764,-0.00671387,0.0315063,
2766,-0.0109863,0.0314697,
2768,-0.00427246,0.031427,
2770,-0.00854492,0.0314026,
2772,-0.00793457,0.0313477,
2774,-0.00244141,0.0305054,
2776,-0.0152588,0.0300049,
2778,-0.00976563,0.0298889,
2780,-0.00793457,0.029425,
2782,-0.00976563,0.0294434,
2784,-0.0231934,0.02948,
2786,-0.0115967,0.0290466,
2788,-0.012207,0.0275879,
2790,-0.0134277,0.0265564,
2792,-0.0146484,0.0255981,
2794,-0.0195313,0.024707,
2796,-0.0146484,0.0247559,
2798,-0.00305176,0.0242859,
2800,-0.0268555,0.0237976,
2802,-0.0164795,0.0236389,
2804,-0.0195313,0.0233765,
2806,-0.0140381,0.0234802,
2808,-0.0115967,0.0226868,
2810,-0.0299072,0.022113,
2812,-0.0238037,0.0209106,
2814,-0.0128174,0.0209595,
2816,-0.0244141,0.0207886,
2818,-0.0177002,0.0208496,
2820,-0.022583,0.0206055,
2822,-0.022583,0.0205811,
2824,-0.0213623,0.0204163,
2826,-0.0219727,0.0201416,
2828,-0.0189209,0.019928,
2830,-0.020752,0.0198425,
2832,-0.0201416,0.0198364,
2834,-0.0250244,0.019928,
2836,-0.0195313,0.0196106,
2838,-0.0177002,0.0184509,
2840,-0.0262451,0.0169861,
2842,-0.022583,0.0171692,
2844,-0.0164795,0.0165344,
2846,-0.0164795,0.0166321,
2848,-0.010376,0.016449,
2850,-0.0158691,0.0160645,
2852,-0.0292969,0.0161438,
2854,-0.0170898,0.0162292,
2856,-0.0128174,0.0162354,
2858,-0.0158691,0.016272,
2860,-0.0244141,0.0164368,
2862,-0.020752,0.0166077,
2864,-0.0146484,0.0167297,
2866,-0.0262451,0.0169006,
2868,-0.0146484,0.0167786,
2870,-0.0152588,0.0165466,
2872,-0.0183105,0.0165039,
2874,-0.0152588,0.0164429,
2876,-0.0195313,0.0164124,
2878,-0.0201416,0.015625,
2880,-0.0183105,0.0156311,
2882,-0.0170898,0.0150146,
2884,-0.0164795,0.014978,
2886,-0.0152588,0.0150269,
2888,-0.0164795,0.0148376,
2890,-0.0280762,0.0146851,
2892,-0.0134277,0.0143677,
2894,-0.0170898,0.0142395,
2896,-0.0164795,0.0142639,
2898,-0.0164795,0.0143555,
2900,-0.0231934,0.0145752,
2902,-0.0134277,0.0146912,
2904,-0.0238037,0.0149231,
2906,-0.0183105,0.0151001,
2908,-0.0146484,0.0152283,
2910,-0.0213623,0.015387,
2912,-0.020752,0.0154907,
2914,-0.0158691,0.0153381,
2916,-0.0256348,0.015509,
2918,-0.0164795,0.014978,
2920,-0.0201416,0.0149353,
2922,-0.0219727,0.0150696,
2924,-0.0164795,0.0151245,
2926,-0.0244141,0.0151428,
2928,-0.020752,0.0151733,
2930,-0.0213623,0.015271,
2932,-0.0164795,0.0153687,
2934,-0.0195313,0.0155334,
2936,-0.0134277,0.0156616,
2938,-0.0238037,0.0158875,
2940,-0.0286865,0.0161255,
2942,-0.00976563,0.0161987,
2944,-0.0201416,0.0163696,
2946,-0.0189209,0.0165222,
2948,-0.0201416,0.016687,
2950,-0.0262451,0.0169006,
2952,-0.0189209,0.0170654,
2954,-0.0183105,0.0172241,
2956,-0.0152588,0.0173218,
2958,-0.0152588,0.0174622,
2960,-0.0201416,0.0176025,
2962,-0.0152588,0.0177002,
2964,-0.0158691,0.0177917,
2966,-0.0213623,0.0178955,
2968,-0.0128174,0.017981,
2970,-0.0152588,0.0180481,
2972,-0.0164795,0.0181335,
2974,-0.0152588,0.0182617,
2976,-0.0158691,0.0182678,
2978,-0.0146484,0.0183167,
2980,-0.0140381,0.0183777,
2982,-0.0164795,0.0184448,
2984,-0.0109863,0.0183228,
2986,-0.010376,0.0183105,
2988,-0.0109863,0.0182983,
2990,-0.0128174,0.0182922,
2992,-0.00854492,0.0182312,
2994,-0.00915527,0.0181274,
2996,-0.010376,0.0180847,
2998,-0.00793457,0.0181335,
3000,-0.00793457,0.0179443,
3002,-0.0140381,0.0179199,
3004,-0.0152588,0.0178772,
3006,-0.0134277,0.0178711,
3008,-0.010376,0.0178589,
3010,-0.0183105,0.0177429,
3012,-0.0128174,0.0176331,
3014,-0.0115967,0.0176208,
3016,-0.0158691,0.0175354,
3018,-0.00976563,0.0174561,
3020,-0.00915527,0.0173218,
3022,-0.00976563,0.0171936,
3024,-0.00793457,0.0170593,
3026,-0.00976563,0.0169373,
3028,-0.00793457,0.0168274,
3030,-0.012207,0.0167419,
3032,-0.00732422,0.0166138,
3034,-0.00854492,0.016449,
3036,-0.00854492,0.0163391,
3038,-0.00854492,0.0162476,
3040,-0.00915527,0.0160767,
3042,-0.00976563,0.0159485,
3044,-0.00915527,0.0158752,
3046,-0.00183105,0.0157288,
3048,-0.00549316,0.0156799,
3050,-0.010376,0.015625,
3052,-0.00305176,0.0153625,
3054,-0.00732422,0.0152649,
3056,-0.00427246,0.0151794,
3058,-0.00244141,0.0150452,
3060,-0.010376,0.0149048,
3062,-0.00244141,0.0147217,
3064,-0.00488281,0.014624,
3066,-0.00671387,0.0144287,
3068,-0.0012207,0.0142944,
3070,-0.00793457,0.0142212,
3072,-0.00427246,0.0140808,
3074,-0.0012207,0.0139404,
3076,-0.00854492,0.0138306,
3078,-0.00366211,0.0136658,
3080,-0.00549316,0.0135376,
3082,-0.00549316,0.0134216,
3084,-0.00793457,0.0133362,
3086,-0.00427246,0.0132263,
3088,-0.00427246,0.0131042,
3090,-0.00488281,0.0128723,
3092,-0.00427246,0.0127808,
3094,-0.0012207,0.0126221,
3096,-0.00183105,0.0124756,
3098,-0.000610352,0.0123169,
3100,-0.00732422,0.0121582,
3102,-0.00305176,0.0120544,
3104,-0.00183105,0.0118347,
3106,-0.00366211,0.0116882,
3108,0.00427246,0.0115845,
3110,0.00793457,0.0114502,
3112,0.00610352,0.0113037,
3114,-0.00610352,0.0112061,
3116,0.00549316,0.0110046,
3118,0.0152588,0.0109924,
3120,0.00610352,0.0108521,
3122,0.00671387,0.0106995,
3124,-0.00183105,0.010553,
3126,0.012207,0.0104309,
3128,-0.03479,0.0105713,
3130,0.00305176,0.0103882,
3132,0.00732422,0.0102966,
3134,0.0317383,0.0104187,
3136,0.00793457,0.0103638,
3138,-0.0274658,0.0104004,
3140,-0.0714111,0.0108276,
3142,0.0695801,0.0114258,
3144,0.0585938,0.0118103,
3146,0.0360107,0.0119812,
3148,-0.0195313,0.0119751,
3150,0.055542,0.0122681,
3152,0.102539,0.0131042,
3154,-0.0396729,0.0133179,
3156,-0.0427246,0.0135925,
3158,0.0671387,0.0141113,
3160,-0.0195313,0.0141052,
3162,-0.100708,0.0149597,
3164,-0.0720215,0.0155212,
3166,-0.0506592,0.0158142,
3168,-0.00488281,0.0157349,
3170,0.00488281,0.0156311,
3172,0.0195313,0.0156616,
3174,-0.00427246,0.0155518,
3176,0.102539,0.0164185,
3178,-0.160522,0.0178772,
3180,0.0738525,0.0184753,
3182,0.0262451,0.018573,
3184,0.00793457,0.0185425,
3186,0.140991,0.0198486,
3188,0.0415039,0.0201538,
3190,0.0134277,0.0201599,
3192,-0.126953,0.021344,
3194,0.108643,0.0223389,
3196,-0.0195313,0.0224304,
3198,0.0634766,0.0229858,
3200,-0.0750732,0.0236572,
3202,-0.158081,0.0250977,
3204,0.0366211,0.0253113,
3206,-0.151978,0.0266968,
3208,-0.00976563,0.0266907,
3210,0.111084,0.0276184,
3212,-0.078125,0.0282715,
3214,-0.338135,0.0315369,
3216,-0.00305176,0.0314087,
3218,-0.067749,0.0319885,
3220,-0.256958,0.0344666,
3222,-0.128174,0.0356506,
3224,-0.0384521,0.0359558,
3226,-0.0488281,0.0363464,
3228,-0.067749,0.0369446,
3230,-0.0262451,0.037085,
3232,0.0689697,0.0377014,
3234,-0.0189209,0.0378052,
3236,-0.00244141,0.0377441,
3238,-0.123291,0.0388916,
3240,-0.0683594,0.0394836,
3242,-0.0378418,0.0397644,
3244,-0.0744629,0.0404175,
3246,-0.0872803,0.041272,
3248,-0.0311279,0.0415283,
3250,-0.0976563,0.0424011,
3252,0.00854492,0.0424561,
3254,0.043335,0.0428162,
3256,0.0891113,0.0436646,
3258,-0.0170898,0.043811,
3260,0.00549316,0.0437622,
3262,0.00854492,0.0438232,
3264,0.148926,0.0452637,
3266,0.19104,0.0471069,
3268,-0.106812,0.0481628,
3270,0.0787354,0.0488708,
3272,0.118408,0.0500122,
3274,0.0506592,0.0505066,
3276,-0.0939941,0.0513611,
3278,0.0634766,0.0519592,
3280,0.0762939,0.0526672,
3282,-0.0628662,0.053241,
3284,0.00488281,0.0532104,
3286,-0.0341797,0.0535095,
3288,0.0256348,0.0537231,
3290,0.0665283,0.0543396,
3292,0.0946045,0.0552429,
3294,-0.0335693,0.0555664,
3296,-0.0134277,0.0556824,
3298,0.126953,0.0569458,
3300,0.109863,0.0579712,
3302,-0.0213623,0.0581543,
3304,0.0805664,0.0589417,
3306,-0.020752,0.0591125,
3308,0.0714111,0.0597839,
3310,0.098877,0.0606934,
3312,0.164185,0.0622742,
3314,-0.163574,0.0638489,
3316,0.0982666,0.0647766,
3318,0.141602,0.06604,
3320,0.0488281,0.0664673,
3322,-0.0598145,0.0669983,
3324,0.0543213,0.0675232,
3326,0.0415039,0.0678162,
3328,0.202026,0.0694885,
3330,0.0311279,0.0697693,
3332,-0.0811768,0.0705078,
3334,-0.113525,0.0713257,
3336,0.022583,0.0714722,
3338,0.0439453,0.071637,
3340,-0.0274658,0.0711975,
3342,-0.0720215,0.0712219,
3344,-0.17395,0.0723755,
3346,-0.0256348,0.0722717,
3348,0.0317383,0.0723938,
3350,-0.00427246,0.0718811,
3352,0.0689697,0.0715454,
3354,0.0915527,0.0720642,
3356,0.0195313,0.0718323,
3358,0.24292,0.0735901,
3360,0.0164795,0.0735596,
3362,-0.229492,0.0748474,
3364,0.130615,0.0754333,
3366,0.0592041,0.0755188,
3368,-0.078125,0.0762512,
3370,-0.0646973,0.0768494,
3372,-0.0549316,0.0772034,
3374,-0.0714111,0.0778748,
3376,-0.0195313,0.0770447,
3378,0.0653076,0.0760925,
3380,0.0531006,0.075885,
3382,0.134277,0.0769653,
3384,0.00610352,0.076947,
3386,-0.0744629,0.0762817,
3388,0.0817871,0.0766846,
3390,-0.0646973,0.0771973,
3392,0.0378418,0.0763062,
3394,0.00366211,0.0752563,
3396,-0.045166,0.0755127,
3398,0.0585938,0.0754639,
3400,0.170288,0.076416,
3402,-0.136108,0.0761963,
3404,-0.090332,0.0767334,
3406,0.109253,0.0763062,
3408,0.0665283,0.0768738,
3410,-0.0604248,0.0763672,
3412,-0.0299072,0.075885,
3414,0.020752,0.0727112,
3416,-0.144653,0.0741272,
3418,0.0494385,0.0739441,
3420,0.0341797,0.0717163,
3422,-0.0427246,0.0708618,
3424,0.0952148,0.0714294,
3426,0.0286865,0.071228,
3428,0.0567627,0.0711182,
3430,-0.0476074,0.0713318,
3432,0.0506592,0.0711487,
3434,-0.0750732,0.0717102,
3436,0.00854492,0.0717712,
3438,-0.000610352,0.0705444,
3440,-0.0415039,0.0702759,
3442,-0.0921631,0.0708191,
3444,-0.032959,0.0704041,
3446,0.00732422,0.0696045,
3448,-0.0109863,0.0694031,
3450,-0.0726318,0.0691528,
3452,0.0256348,0.0693237,
3454,0.0201416,0.0690918,
3456,-0.010376,0.0683044,
3458,0.0146484,0.06828,
3460,-0.0146484,0.0683716,
3462,0.0463867,0.06875,
3464,0.0372314,0.0676331,
3466,-0.0762939,0.0664856,
3468,0.192261,0.0673401,
3470,0.00549316,0.0666077,
3472,-0.172729,0.0671509,
3474,0.0891113,0.0675354,
3476,-0.0292969,0.0668884,
3478,-0.0384521,0.0666382,
3480,-0.0494385,0.0663696,
3482,-0.0775146,0.0665161,
3484,-0.0366211,0.0668335,
3486,-0.0183105,0.0666748,
3488,-0.0109863,0.0665283,
3490,0.0164795,0.0660278,
3492,0.0476074,0.0655579,
3494,0.0457764,0.0656799,
3496,-0.0439453,0.0659851,
3498,0.111694,0.0658325,
3500,0.0518799,0.0652527,
3502,-0.172119,0.0667603,
3504,0.0720215,0.0666748,
3506,0.0439453,0.0669067,
3508,-0.0738525,0.0669312,
3510,-0.0823975,0.0667664,
3512,0.0366211,0.0654907,
3514,-0.00793457,0.0639343,
3516,-0.112305,0.0640747,
3518,-0.000610352,0.0626648,
3520,0.0262451,0.062439,
3522,-0.012207,0.0619629,
3524,-0.010376,0.0615234,
3526,-0.0170898,0.0612793,
3528,-0.00488281,0.0593079,
3530,0.0604248,0.0596008,
3532,0.115967,0.0599487,
3534,-0.0378418,0.0591919,
3536,0.0311279,0.0592773,
3538,0.00244141,0.0588623,
3540,-0.0262451,0.0588501,
3542,0.0634766,0.0587646,
3544,-0.0506592,0.0575317,
3546,-0.0579834,0.0578552,
3548,-0.00915527,0.0576294,
3550,-0.0787354,0.058374,
3552,-0.0311279,0.0579956,
3554,-0.0012207,0.0570923,
3556,0.0244141,0.0571411,
3558,0.0390625,0.0551025,
3560,0.000610352,0.0549438,
3562,-0.0531006,0.0531799,
3564,0.055542,0.0524292,
3566,0.0384521,0.0522217,
3568,-0.0280762,0.0517212,
3570,-0.012207,0.0511963,
3572,0.0909424,0.0515564,
3574,0.0402832,0.0512451,
3576,-0.0708008,0.0517578,
3578,-0.0775146,0.0518799,
3580,0.0213623,0.0515625,
3582,0.00183105,0.050238,
3584,-0.0317383,0.0504944,
3586,-0.0244141,0.0499939,
3588,-0.0567627,0.0497437,
3590,0.022583,0.0493225,
3592,0.03479,0.049292,
3594,-0.112305,0.0503784,
3596,-0.00244141,0.0499512,
3598,0.0585938,0.0499512,
3600,-0.0146484,0.0483948,
3602,-0.0531006,0.0475647,
3604,-0.0396729,0.0470581,
3606,0.0494385,0.04646,
3608,0.0115967,0.0459106,
3610,-0.115356,0.04646,
3612,0.00976563,0.0462585,
3614,0.0341797,0.0463928,
3616,-0.00793457,0.0450256,
3618,0.00427246,0.044574,
3620,-0.0244141,0.0444763,
3622,-0.0970459,0.0450195,
3624,0.0164795,0.0442322,
3626,-0.000610352,0.0439514,
3628,0.00427246,0.0434265,
3630,0.0323486,0.0432739,
3632,-0.022583,0.0429932,
3634,0.0622559,0.042865,
3636,0.0219727,0.0429993,
3638,-0.0915527,0.0439087,
3640,0.0653076,0.0441467,
3642,-0.0665283,0.0438904,
3644,-0.010376,0.0436646,
3646,-0.0305176,0.0438965,
3648,-0.0445557,0.0442322,
3650,-0.043335,0.0439392,
3652,-0.0238037,0.0439209,
3654,-0.000610352,0.0437256,
3656,-0.0170898,0.0437927,
3658,0.00793457,0.0437256,
3660,0.0372314,0.0439514,
3662,0.0317383,0.0438049,
3664,-0.022583,0.0436584,
3666,0.114746,0.044043,
3668,-0.148926,0.0436096,
3670,0.0189209,0.0437439,
3672,0.0323486,0.0423401,
3674,-0.022583,0.0416748,
3676,-0.0469971,0.0418518,
3678,-0.03479,0.0418152,
3680,-0.0335693,0.0416565,
3682,-0.0219727,0.0411011,
3684,-0.00671387,0.040802,
3686,0.00305176,0.0406494,
3688,0.0189209,0.0407288,
3690,-0.00854492,0.0406494,
3692,0.00671387,0.0402405,
3694,0.0250244,0.040033,
3696,-0.0195313,0.0397888,
3698,0.00793457,0.0387512,
3700,-0.0012207,0.0382446,
3702,0.00244141,0.0365479,
3704,0.0012207,0.0358398,
3706,-0.0177002,0.0355774,
3708,0.00610352,0.0348999,
3710,-0.000610352,0.034082,
3712,0.00305176,0.0337463,
3714,-0.00427246,0.0337097,
3716,-0.00549316,0.0326416,
3718,0.00427246,0.0326782,
3720,-0.000610352,0.0324219,
3722,-0.00183105,0.0323181,
3724,0.000610352,0.0322205,
3726,-0.00427246,0.0320923,
3728,-0.0012207,0.0320557,
3730,-0.00427246,0.0314941,
3732,-0.0012207,0.0303467,
3734,-0.00488281,0.0300171,
3736,-0.00305176,0.0297363,
3738,-0.00183105,0.0297302,
3740,-0.00915527,0.0295593,
3742,-0.00244141,0.028949,
3744,-0.00427246,0.0284851,
3746,-0.00366211,0.0279419,
3748,-0.00244141,0.0278748,
3750,-0.012207,0.0272095,
3752,-0.00366211,0.0269348,
3754,-0.00976563,0.0270203,
3756,-0.00793457,0.0268555,
3758,-0.00671387,0.026532,
3760,-0.0128174,0.0266541,
3762,-0.00549316,0.026178,
3764,-0.0134277,0.0257568,
3766,-0.00976563,0.02547,
3768,-0.00549316,0.0252441,
3770,-0.012207,0.0252441,
3772,-0.012207,0.0244568,
3774,-0.00915527,0.0241455,
3776,-0.0146484,0.023584,
3778,-0.0134277,0.0229431,
3780,-0.0164795,0.0228943,
3782,-0.0170898,0.0230469,
3784,-0.0177002,0.0229065,
3786,-0.0177002,0.0228394,
3788,-0.0177002,0.0224487,
3790,-0.0183105,0.022406,
3792,-0.0177002,0.0222351,
3794,-0.0183105,0.0212952,
3796,-0.0189209,0.02146,
3798,-0.0164795,0.0210388,
3800,-0.0219727,0.0211121,
3802,-0.020752,0.0207886,
3804,-0.0238037,0.0206299,
3806,-0.0268555,0.0204041,
3808,-0.022583,0.0205139,
3810,-0.0286865,0.0196472,
3812,-0.0268555,0.0198181,
3814,-0.0250244,0.0197266,
3816,-0.0262451,0.0199097,
3818,-0.0177002,0.0200439,
3820,-0.0274658,0.0200745,
3822,-0.022583,0.0193298,
3824,-0.0189209,0.0193542,
3826,-0.0244141,0.0195923,
3828,-0.0231934,0.0197815,
3830,-0.022583,0.0196838,
3832,-0.0256348,0.0197144,
3834,-0.0195313,0.0192871,
3836,-0.0219727,0.0192871,
3838,-0.022583,0.0185974,
3840,-0.0244141,0.0181885,
3842,-0.0189209,0.0177124,
3844,-0.0201416,0.0178101,
3846,-0.0195313,0.0177002,
3848,-0.0183105,0.0174377,
3850,-0.0238037,0.0172424,
3852,-0.0213623,0.017218,
3854,-0.0201416,0.0174133,
3856,-0.0201416,0.0174438,
3858,-0.0201416,0.0175659,
3860,-0.0244141,0.0174377,
3862,-0.0177002,0.0172974,
3864,-0.0189209,0.0172607,
3866,-0.0231934,0.0163452,
3868,-0.0158691,0.0150146,
3870,-0.0177002,0.0150024,
3872,-0.020752,0.0148865,
3874,-0.0164795,0.0148254,
3876,-0.0231934,0.0145874,
3878,-0.0183105,0.0144226,
3880,-0.0189209,0.0142761,
3882,-0.020752,0.0142639,
3884,-0.0189209,0.014386,
3886,-0.0183105,0.0145386,
3888,-0.0164795,0.0145142,
3890,-0.0177002,0.0146057,
3892,-0.0158691,0.0146973,
3894,-0.0115967,0.014563,
3896,-0.0140381,0.0145081,
3898,-0.0115967,0.0145447,
3900,-0.0140381,0.0146729,
3902,-0.012207,0.0147705,
3904,-0.0134277,0.0148926,
3906,-0.0158691,0.0148743,
3908,-0.00854492,0.0148987,
3910,-0.0128174,0.0150208,
3912,-0.0115967,0.0151062,
3914,-0.0115967,0.0151794,
3916,-0.0128174,0.0152527,
3918,-0.00793457,0.0152893,
3920,-0.00610352,0.0153442,
3922,-0.012207,0.015448,
3924,-0.00793457,0.0155212,
3926,-0.0128174,0.0156067,
3928,-0.00793457,0.0156738,
3930,-0.010376,0.0157349,
3932,-0.0109863,0.0158325,
3934,-0.00976563,0.0158813,
3936,-0.0134277,0.0159851,
3938,-0.00976563,0.0160645,
3940,-0.0109863,0.0160828,
3942,-0.0109863,0.0161682,
3944,-0.0109863,0.0162354,
3946,-0.012207,0.0163208,
3948,-0.00671387,0.0163635,
3950,-0.0152588,0.016394,
3952,-0.0109863,0.0164673,
3954,-0.010376,0.0164734,
3956,-0.0134277,0.0165283,
3958,-0.00915527,0.0165527,
3960,-0.0140381,0.0165649,
3962,-0.012207,0.0166321,
3964,-0.0152588,0.0166504,
3966,-0.0158691,0.0167114,
3968,-0.00793457,0.0167358,
3970,-0.0170898,0.0167847,
3972,-0.0164795,0.0168274,
3974,-0.0109863,0.0168457,
3976,-0.0189209,0.0168884,
3978,-0.0152588,0.0169067,
3980,-0.0158691,0.0169006,
3982,-0.0146484,0.0168762,
3984,-0.0140381,0.0168396,
3986,-0.0158691,0.0168213,
3988,-0.0152588,0.0167969,
3990,-0.0164795,0.0167786,
3992,-0.0152588,0.0167542,
3994,-0.0109863,0.0166809,
3996,-0.012207,0.0166138,
3998,-0.0134277,0.0165833,
4000,-0.0158691,0.0165222,
4002,-0.012207,0.0164368,
4004,-0.0170898,0.0163696,
4006,-0.0140381,0.0162415,
4008,-0.00976563,0.0161133,
4010,-0.0164795,0.0159912,
4012,-0.0152588,0.0158752,
4014,-0.00976563,0.0157227,
4016,-0.0170898,0.0156311,
4018,-0.0109863,0.015564,
4020,-0.012207,0.0154114,
4022,-0.00854492,0.015271,
4024,-0.00793457,0.0151611,
4026,-0.0128174,0.0150452,
4028,-0.00732422,0.0148865,
4030,-0.00671387,0.0147278,
4032,-0.00915527,0.014563,
4034,-0.0115967,0.0144836,
4036,-0.00244141,0.0142883,
4038,-0.00671387,0.0141296,
4040,-0.010376,0.0139893,
4042,-0.00488281,0.0138489,
4044,-0.00671387,0.0137146,
4046,-0.00427246,0.013562,
4048,-0.00488281,0.0134277,
4050,-0.00793457,0.013269,
4052,-0.00427246,0.0130981,
4054,-0.00671387,0.0129639,
4056,-0.00549316,0.0128174,
4058,-0.00427246,0.0126587,
4060,-0.00915527,0.0125061,
4062,-0.00488281,0.0123779,
4064,-0.00854492,0.0122742,
4066,-0.00976563,0.0121399,
4068,-0.00244141,0.0120056,
4070,-0.00671387,0.0118958,
4072,-0.00732422,0.0117615,
4074,-0.00610352,0.0116577,
4076,-0.00671387,0.0114929,
4078,-0.00244141,0.0113342,
4080,-0.00915527,0.0112366,
4082,-0.00915527,0.0111206,
4084,-0.00549316,0.0109863,
4086,-0.00610352,0.0108643,
4088,-0.00671387,0.0107666,
4090,-0.00915527,0.0106812,
4092,-0.00610352,0.0105835,
4094,-0.00488281,0.0105164,
4096,-0.00732422,0.0104492,
4098,-0.00427246,0.010376,
4100,-0.00427246,0.0102783,
4102,-0.00793457,0.0102356,
4104,-0.00915527,0.0101929,
4106,-0.00488281,0.010083,
4108,-0.00793457,0.0100769,
4110,-0.0146484,0.0100952,
4112,-0.000610352,0.00998535,
4114,-0.00732422,0.00994263,
4116,-0.0115967,0.00993042,
4118,-0.00366211,0.0098877,
4120,-0.00732422,0.0098999,
4122,-0.00732422,0.00985107,
4124,-0.00488281,0.00982056,
4126,-0.0109863,0.00980225,
4128,-0.00793457,0.00980225,
4130,-0.00915527,0.00979004,
4132,-0.012207,0.00980225,
4134,-0.010376,0.00980835,
4136,-0.010376,0.00977783,
4138,-0.00976563,0.00977783,
4140,-0.0115967,0.00978394,
4142,-0.0109863,0.00978394,
4144,-0.00976563,0.00977173,
4146,-0.00915527,0.00974121,
4148,-0.0115967,0.00979004,
4150,-0.0109863,0.00974731,
4152,-0.00915527,0.009729,
4154,-0.0140381,0.00976563,
4156,-0.00854492,0.0097168,
4158,-0.00610352,0.00968628,
4160,-0.00976563,0.00964355,
4162,-0.00610352,0.00958252,
4164,-0.00610352,0.00949097,
4166,-0.00854492,0.00941772,
4168,-0.0012207,0.00935059,
4170,-0.00671387,0.00924683,
4172,-0.00854492,0.00916748,
4174,-0.00366211,0.00909424,
4176,-0.012207,0.0090271,
4178,-0.00793457,0.00895386,
4180,-0.0109863,0.00890503,
4182,-0.0115967,0.00887451,
4184,-0.0109863,0.00884399,
4186,-0.012207,0.00880737,
4188,-0.0109863,0.00876465,
4190,-0.0140381,0.00874023,
4192,-0.012207,0.00870972,
4194,-0.0128174,0.00872803,
4196,-0.00976563,0.00870361,
4198,-0.0128174,0.00869751,
4200,-0.0134277,0.0086731,
4202,-0.00915527,0.00864258,
4204,-0.0128174,0.00859985,
4206,-0.0109863,0.00856934,
4208,-0.00549316,0.00852661,
4210,-0.0109863,0.00847168,
4212,-0.0134277,0.00845337,
4214,-0.00610352,0.00841675,
4216,-0.0158691,0.00840454,
4218,-0.00610352,0.00835571,
4220,-0.00366211,0.00827026,
4222,-0.0146484,0.0083313,
4224,-0.00488281,0.00830078,
4226,-0.0115967,0.00828857,
4228,-0.0115967,0.0083313,
4230,-0.00671387,0.0083313,
4232,-0.00976563,0.0083374,
4234,-0.00854492,0.00830688,
4236,-0.012207,0.00840454,
4238,-0.00915527,0.00842896,
4240,-0.0109863,0.00843506,
4242,-0.00793457,0.00846558,
4244,-0.00793457,0.00847778,
4246,-0.0115967,0.00855103,
4248,-0.00854492,0.00858765,
4250,-0.00488281,0.00855713,
4252,-0.0109863,0.00862427,
4254,-0.0128174,0.0086853,
4256,-0.00488281,0.0086792,
4258,-0.00549316,0.00869141,
4260,-0.0115967,0.00871582,
4262,-0.00488281,0.00871582,
4264,-0.00976563,0.00872803,
4266,-0.0109863,0.00874023,
4268,-0.00427246,0.00875854,
4270,-0.00854492,0.00877686,
4272,-0.0109863,0.00881348,
4274,-0.00671387,0.00881958,
4276,-0.012207,0.00887451,
4278,-0.00915527,0.00894165,
4280,-0.00976563,0.00894775,
4282,-0.0115967,0.00897217,
4284,-0.00976563,0.00901489,
4286,-0.0109863,0.00906372,
4288,-0.00915527,0.00908813,
4290,-0.0140381,0.00913696,
4292,-0.00549316,0.00913086,
4294,-0.012207,0.0092041,
4296,-0.00610352,0.00919189,
4298,-0.00610352,0.00921021,
4300,-0.0109863,0.00927734,
4302,-0.00366211,0.00923462,
4304,-0.00610352,0.0092041,
4306,-0.00488281,0.0092041,
4308,-0.00549316,0.00917969,
4310,-0.00427246,0.00907593,
4312,-0.0012207,0.00908203,
4314,-0.00244141,0.0090332,
4316,-0.00610352,0.00897827,
4318,-0.000610352,0.00894775,
4320,-0.00366211,0.00891113,
4322,-0.00549316,0.00889282,
4324,-0.00305176,0.00887451,
4326,-0.00915527,0.0088562,
4328,-0.00732422,0.0088501,
4330,-0.00976563,0.0088562,
4332,-0.010376,0.00883789,
4334,-0.00793457,0.00881348,
4336,-0.00915527,0.00880127,
4338,-0.00976563,0.00880127,
4340,-0.00976563,0.00878296,
4342,-0.00488281,0.00872192,
4344,-0.00976563,0.00872192,
4346,-0.0109863,0.00874023,
4348,-0.000610352,0.00863037,
4350,-0.00915527,0.00861206,
4352,-0.010376,0.00862427,
4354,-0.00793457,0.00856323,
4356,-0.00671387,0.00854492,
4358,-0.00427246,0.00852661,
4360,-0.00610352,0.00848999,
4362,-0.00244141,0.00845337,
4364,-0.00427246,0.00843506,
4366,-0.00549316,0.00840454,
4368,0.0012207,0.00840454,
4370,-0.00183105,0.00835571,
4372,-0.00366211,0.00830688,
4374,-0.0012207,0.00828247,
4376,-0.00671387,0.00822754,
4378,-0.00427246,0.00819092,
4380,-0.00488281,0.00812988,
4382,-0.00732422,0.00808716,
4384,-0.00488281,0.00802612,
4386,-0.00610352,0.00796509,
4388,-0.00732422,0.00792847,
4390,-0.00366211,0.00782471,
4392,-0.0140381,0.00784302,
4394,-0.00305176,0.00774536,
4396,-0.00610352,0.00770874,
4398,-0.00793457,0.00765991,
4400,-0.00732422,0.00759888,
4402,-0.0109863,0.00761719,
4404,-0.00549316,0.00754395,
4406,-0.010376,0.00753784,
4408,-0.00305176,0.00751343,
4410,-0.010376,0.00750732,
4412,-0.00610352,0.00743408,
4414,-0.00671387,0.00744019,
4416,-0.00976563,0.00737915,
4418,-0.00244141,0.00734253,
4420,-0.00671387,0.00737305,
4422,-0.00732422,0.0072998,
4424,-0.00427246,0.0072937,
4426,-0.010376,0.00728149,
4428,-0.00671387,0.00723267,
4430,-0.00793457,0.00724487,
4432,-0.00793457,0.00722656,
4434,-0.00549316,0.00719604,
4436,-0.00732422,0.00714722,
4438,-0.00610352,0.0071167,
4440,-0.00488281,0.00705566,
4442,-0.00305176,0.00700684,
4444,-0.00427246,0.00697021,
4446,-0.00305176,0.00688477,
4448,-0.0012207,0.00681152,
4450,-0.00732422,0.00683594,
4452,0.000610352,0.00673218,
4454,-0.012207,0.00672607,
4456,-0.00854492,0.0067627,
4458,0.0012207,0.00671997,
4460,-0.0109863,0.00671387,
4462,-0.00671387,0.00673218,
4464,-0.00732422,0.00670776,
4466,-0.00793457,0.00667725,
4468,-0.00427246,0.00667725,
4470,-0.00366211,0.00662842,
4472,-0.00610352,0.00657959,
4474,-0.00305176,0.00654297,
4476,-0.00854492,0.00650635,
4478,-0.00427246,0.00645752,
4480,-0.00610352,0.0064209,
4482,-0.00671387,0.00637207,
4484,-0.00732422,0.00634766,
4486,-0.00427246,0.00628052,
4488,-0.00610352,0.00625,
4490,-0.00732422,0.00618286,
4492,-0.00244141,0.00615234,
4494,-0.00305176,0.00606079,
4496,-0.00610352,0.00606079,
4498,0.00244141,0.00602417,
4500,-0.00732422,0.00598755,
4502,-0.00549316,0.00600586,
4504,-0.0012207,0.00595703,
4506,-0.00427246,0.00595093,
4508,-0.00183105,0.00591431,
4510,-0.00610352,0.00593262,
4512,-0.00305176,0.00595093,
4514,-0.00244141,0.00595093,
4516,-0.00671387,0.00595703,
4518,0,0.00595093,
4520,-0.00488281,0.00596313,
4522,-0.00549316,0.00596313,
4524,-0.00183105,0.00595093,
4526,-0.00793457,0.00593872,
4528,-0.00427246,0.0059082,
4530,-0.00610352,0.00587158,
4532,-0.00671387,0.00583496,
4534,-0.00305176,0.00578613,
4536,-0.00732422,0.00576782,
4538,-0.00488281,0.00571899,
4540,-0.00488281,0.00567017,
4542,-0.00854492,0.00570679,
4544,-0.00671387,0.00567627,
4546,-0.00183105,0.00558472,
4548,-0.00244141,0.00560303,
4550,-0.00671387,0.00557861,
4552,-0.00549316,0.00552979,
4554,-0.00244141,0.00547485,
4556,-0.00793457,0.00548706,
4558,-0.00183105,0.00546265,
4560,-0.00732422,0.00547485,
4562,-0.00732422,0.00552368,
4564,-0.00671387,0.0055481,
4566,-0.00793457,0.00557251,
4568,-0.00732422,0.00563354,
4570,-0.00732422,0.00568848,
4572,-0.00854492,0.0057373,
4574,-0.00366211,0.00576172,
4576,-0.0109863,0.00580444,
4578,-0.00549316,0.00581665,
4580,-0.00854492,0.00585327,
4582,-0.0152588,0.00593262,
4584,-0.00183105,0.0059021,
4586,-0.00732422,0.00591431,
4588,-0.00610352,0.0059021,
4590,-0.00732422,0.00593872,
4592,-0.00427246,0.00584106,
4594,-0.00244141,0.00583496,
4596,-0.00305176,0.00580444,
4598,-0.00366211,0.00576172,
4600,-0.00305176,0.00571899,
4602,-0.00244141,0.00563354,
4604,-0.00732422,0.00565186,
4606,-0.00732422,0.00562134,
4608,-0.00305176,0.00562134,
4610,-0.010376,0.00562134,
4612,-0.00183105,0.00557861,
4614,-0.00549316,0.00556641,
4616,-0.00793457,0.0055481,
4618,-0.00244141,0.0055481,
4620,-0.00549316,0.00553589,
4622,-0.00244141,0.00548706,
4624,0.000610352,0.00545044,
4626,-0.00915527,0.00543823,
4628,0,0.00537109,
4630,-0.00244141,0.00531616,
4632,-0.000610352,0.00524292,
4634,-0.0012207,0.0052002,
4636,-0.000610352,0.00513306,
4638,-0.00427246,0.00511475,
4640,-0.00244141,0.00509033,
4642,0.00183105,0.00507813,
4644,-0.00671387,0.00510254,
4646,-0.00244141,0.00509644,
4648,-0.00244141,0.00510864,
4650,-0.0109863,0.00514526,
4652,-0.000610352,0.00514526,
4654,-0.00671387,0.00509033,
4656,-0.00610352,0.00506592,
4658,-0.00244141,0.00507813,
4660,-0.00854492,0.00505371,
4662,-0.00305176,0.00501709,
4664,-0.00488281,0.00499268,
4666,-0.00854492,0.00499878,
4668,-0.0012207,0.00496826,
4670,-0.010376,0.0050354,
4672,-0.00732422,0.00504761,
4674,-0.00488281,0.00506592,
4676,-0.0146484,0.00512695,
4678,-0.00671387,0.00515137,
4680,-0.00854492,0.00517578,
4682,-0.00793457,0.00518799,
4684,-0.00427246,0.00515747,
4686,-0.00854492,0.0052002,
4688,-0.0012207,0.00515137,
4690,-0.00549316,0.00513306,
4692,-0.00305176,0.00513916,
4694,0.000610352,0.00511475,
4696,-0.00427246,0.00509644,
4698,0.00305176,0.00510254,
4700,-0.00549316,0.00508423,
4702,-0.00366211,0.00506592,
4704,-0.00427246,0.00509644,
4706,-0.00244141,0.00507813,
4708,0.0012207,0.00507202,
4710,-0.00305176,0.0050415,
4712,0,0.00501099,
4714,0.000610352,0.00499268,
4716,-0.00488281,0.00497437,
4718,0.00183105,0.00499268,
4720,-0.00305176,0.00497437,
4722,-0.00305176,0.00494995,
4724,-0.00183105,0.00494995,
4726,-0.00976563,0.00496826,
4728,-0.00366211,0.00496216,
4730,-0.00915527,0.00499268,
4732,-0.00671387,0.00499268,
4734,-0.012207,0.00508423,
4736,-0.0012207,0.00502319,
4738,-0.00549316,0.0050293,
4740,-0.00610352,0.0050415,
4742,-0.00183105,0.00497437,
4744,-0.0012207,0.00491943,
4746,-0.00366211,0.00493774,
4748,0.00488281,0.00496216,
4750,-0.00244141,0.00491943,
4752,-0.00244141,0.00488892,
4754,-0.00305176,0.00489502,
4756,-0.00793457,0.00489502,
4758,0,0.00487671,
4760,-0.00610352,0.0048645,
4762,-0.00305176,0.00482178,
4764,-0.00366211,0.00479126,
4766,-0.00854492,0.00479736,
4768,0.0012207,0.00473633,
4770,-0.00244141,0.0046875,
4772,-0.00427246,0.00464478,
4774,-0.000610352,0.00461426,
4776,-0.00610352,0.00456543,
4778,-0.00305176,0.00454102,
4780,-0.00305176,0.00448608,
4782,-0.00732422,0.00440674,
4784,-0.00183105,0.00440674,
4786,-0.00366211,0.00437012,
4788,-0.00183105,0.00432739,
4790,-0.00305176,0.00428467,
4792,0.000610352,0.00424805,
4794,0,0.00422363,
4796,-0.00610352,0.00425415,
4798,0.00549316,0.00427246,
4800,-0.00244141,0.00426636,
4802,-0.00610352,0.00430298,
4804,0.0012207,0.00424194,
4806,0.00183105,0.00418701,
4808,0.00427246,0.00419922,
4810,-0.00427246,0.00413818,
4812,-0.0012207,0.00413208,
4814,0.00183105,0.00409546,
4816,-0.00183105,0.00403442,
4818,0.000610352,0.00401611,
4820,-0.00610352,0.00402222,
4822,-0.00610352,0.00405884,
4824,-0.00549316,0.00410767,
4826,-0.00793457,0.00409546,
4828,-0.00671387,0.0041626,
4830,-0.00671387,0.00420532,
4832,-0.00610352,0.00426025,
4834,-0.00976563,0.0043457,
4836,-0.00549316,0.00439453,
4838,-0.00610352,0.00441284,
4840,-0.00305176,0.00441895,
4842,-0.00427246,0.00444336,
4844,-0.00488281,0.00442505,
4846,-0.00366211,0.00443726,
4848,-0.000610352,0.00441895,
4850,-0.00549316,0.00436401,
4852,-0.00610352,0.00441895,
4854,-0.00427246,0.00439453,
4856,-0.010376,0.00443726,
4858,-0.00305176,0.00444336,
4860,-0.00793457,0.00443726,
4862,-0.00366211,0.00444336,
4864,-0.00793457,0.00447388,
4866,-0.00549316,0.00444336,
4868,-0.00366211,0.00446777,
4870,-0.00427246,0.00440674,
4872,-0.00366211,0.00437012,
4874,0.0012207,0.0043335,
4876,-0.00793457,0.00426636,
4878,-0.000610352,0.00420532,
4880,-0.00183105,0.00413818,
4882,-0.00549316,0.00411377,
4884,0.000610352,0.00407715,
4886,-0.0012207,0.00400391,
4888,-0.00366211,0.00402832,
4890,-0.00488281,0.00402222,
4892,-0.00183105,0.00401001,
4894,-0.00305176,0.00403442,
4896,-0.00549316,0.00404663,
4898,0,0.00401611,
4900,-0.00305176,0.0039917,
4902,-0.00305176,0.0039856,
4904,-0.010376,0.00404663,
4906,-0.00305176,0.00405273,
4908,0.000610352,0.00404663,
4910,-0.00732422,0.00408936,
4912,-0.00427246,0.00413208,
4914,-0.00488281,0.0041748,
4916,-0.00549316,0.00418091,
4918,0.0012207,0.0041748,
4920,-0.00427246,0.00418701,
4922,-0.00305176,0.00418701,
4924,0.0012207,0.00418091,
4926,-0.00610352,0.00414429,
4928,-0.00244141,0.00413208,
4930,-0.000610352,0.00404663,
4932,-0.00549316,0.00403442,
4934,-0.00366211,0.00394897,
4936,-0.00305176,0.00396729,
4938,-0.00366211,0.00394897,
4940,-0.00732422,0.00396118,
4942,-0.00305176,0.00397339,
4944,-0.00366211,0.0039978,
4946,-0.00549316,0.00401611,
4948,-0.00366211,0.00400391,
4950,-0.00610352,0.00404053,
4952,-0.00793457,0.00409546,
4954,-0.00610352,0.00412598,
4956,-0.00915527,0.00413818,
4958,-0.00305176,0.0041687,
4960,-0.00915527,0.00419922,
4962,-0.00366211,0.00420532,
4964,-0.00244141,0.00419312,
4966,-0.012207,0.00422974,
4968,0.0012207,0.00422974,
4970,-0.00305176,0.00423584,
4972,-0.00427246,0.00423584,
4974,0.000610352,0.00423584,
4976,-0.00427246,0.00421753,
4978,0.00793457,0.00426636,
4980,-0.000610352,0.00424194,
4982,0.0201416,0.00437012,
4984,0.00671387,0.00441895,
4986,-0.00793457,0.00446167,
4988,0.00610352,0.00450439,
4990,0.00488281,0.00452271,
4992,-0.0195313,0.00471191,
4994,-0.0152588,0.0048645,
4996,-0.0201416,0.00500488,
4998,-0.0262451,0.0052124,
5000,-0.0250244,0.00543823,
5002,-0.0256348,0.00563354,
5004,-0.0213623,0.00583496,
5006,-0.0183105,0.00599976,
5008,-0.010376,0.00606079,
5010,-0.0128174,0.00614624,
5012,-0.0109863,0.0062439,
5014,-0.00915527,0.00631714,
5016,-0.012207,0.0064209,
5018,-0.00610352,0.00647583,
5020,-0.00854492,0.00650024,
5022,-0.00732422,0.00651245,
5024,-0.00366211,0.00649414,
5026,-0.0109863,0.00652466,
5028,-0.00732422,0.00653076,
5030,-0.00671387,0.00653076,
5032,-0.0128174,0.0065979,
5034,0,0.00650024,
5036,-0.00854492,0.00653076,
5038,-0.00488281,0.00651855,
5040,-0.010376,0.0065918,
5042,-0.00610352,0.00661011,
5044,-0.00366211,0.0065979,
5046,-0.00732422,0.00663452,
5048,-0.00427246,0.00667114,
5050,-0.00732422,0.00668945,
5052,-0.00366211,0.00666504,
5054,-0.00732422,0.00669556,
5056,-0.00732422,0.00666504,
5058,-0.00305176,0.00666504,
5060,-0.00488281,0.00663452,
5062,-0.00427246,0.00664063,
5064,-0.00183105,0.00657959,
5066,-0.00732422,0.0065979,
5068,-0.00427246,0.006604,
5070,-0.00244141,0.00658569,
5072,-0.0012207,0.00656128,
5074,-0.0012207,0.00656128,
5076,-0.00549316,0.00653687,
5078,-0.00183105,0.00654907,
5080,-0.0012207,0.00654297,
5082,-0.000610352,0.00649414,
5084,0.00244141,0.00651245,
5086,-0.00183105,0.00651855,
5088,0,0.00648193,
5090,0.00183105,0.00645142,
5092,0.00244141,0.00645752,
5094,-0.00366211,0.00646362,
5096,-0.0012207,0.0064209,
5098,-0.00305176,0.00645142,
5100,-0.000610352,0.006427,
5102,-0.0012207,0.00640869,
5104,-0.00793457,0.00638428,
5106,0.000610352,0.00635986,
5108,0.0012207,0.00636597,
5110,-0.00732422,0.00636597,
5112,-0.00549316,0.00637817,
5114,-0.000610352,0.00633545,
5116,-0.00671387,0.00634766,
5118,-0.00549316,0.00639038,
5120,-0.00793457,0.006427,
5122,-0.0109863,0.00650635,
5124,-0.00671387,0.00656128,
5126,-0.0128174,0.00662842,
5128,-0.0128174,0.00673218,
5130,-0.00732422,0.00679932,
5132,-0.0134277,0.00687866,
5134,-0.00793457,0.00692139,
5136,-0.00488281,0.0069397,
5138,-0.00732422,0.00697632,
5140,-0.00732422,0.00697632,
5142,-0.00671387,0.00701294,
5144,-0.00549316,0.00703125,
5146,-0.00549316,0.00703125,
5148,-0.00549316,0.00704956,
5150,-0.00427246,0.00703125,
5152,-0.00793457,0.00703125,
5154,-0.00549316,0.00702515,
5156,-0.00488281,0.00698242,
5158,0.000610352,0.00695801,
5160,-0.00915527,0.00695801,
5162,0.00305176,0.0069519,
5164,-0.00183105,0.0069458,
5166,-0.00427246,0.00686646,
5168,0.00488281,0.00690308,
5170,-0.00244141,0.00689697,
5172,-0.00427246,0.00689697,
5174,0.00244141,0.00691528,
5176,-0.00427246,0.00691528,
5178,-0.00366211,0.00687256,
5180,-0.000610352,0.00687256,
5182,-0.00488281,0.00671997,
5184,-0.00854492,0.00673828,
5186,0.00244141,0.00668335,
5188,-0.00366211,0.00665894,
5190,-0.00610352,0.00667114,
5192,-0.00305176,0.00650635,
5194,-0.00854492,0.00643921,
5196,-0.00305176,0.00626831,
5198,-0.00305176,0.00603638,
5200,-0.00732422,0.00585938,
5202,-0.00915527,0.00569458,
5204,-0.00915527,0.00557251,
5206,-0.00976563,0.00548706,
5208,-0.00671387,0.00545044,
5210,-0.00793457,0.00540161,
5212,-0.00488281,0.00534058,
5214,-0.00732422,0.00532227,
5216,-0.0128174,0.00532837,
5218,-0.00671387,0.00533447,
5220,-0.00854492,0.00533447,
5222,-0.00610352,0.00532227,
5224,-0.00488281,0.00533447,
5226,-0.0115967,0.00534058,
5228,-0.00305176,0.00529785,
5230,-0.0128174,0.00535889,
5232,-0.00793457,0.00531006,
5234,-0.00183105,0.00532837,
5236,-0.00610352,0.00530396,
5238,-0.00488281,0.00530396,
5240,-0.00610352,0.00526123,
5242,-0.00305176,0.00523071,
5244,-0.00549316,0.00524902,
5246,-0.00671387,0.00524292,
5248,-0.00427246,0.00524292,
5250,-0.00732422,0.00524292,
5252,-0.00610352,0.00526733,
5254,-0.012207,0.00531616,
5256,-0.0146484,0.0053894,
5258,-0.00427246,0.00540161,
5260,-0.00610352,0.00541382,
5262,-0.010376,0.00547485,
5264,-0.0140381,0.00559692,
5266,-0.00915527,0.00561523,
5268,-0.00671387,0.00563965,
5270,-0.0128174,0.00574341,
5272,-0.0115967,0.00584717,
5274,-0.00976563,0.00593262,
5276,-0.0183105,0.00606079,
5278,-0.0115967,0.00615845,
5280,-0.0134277,0.00628052,
5282,-0.0134277,0.00640869,
5284,-0.00671387,0.00645142,
5286,-0.0170898,0.006604,
5288,-0.00488281,0.00665283,
5290,-0.00671387,0.00670166,
5292,-0.0189209,0.00686646,
5294,-0.00976563,0.00692749,
5296,-0.00244141,0.0069397,
5298,-0.0134277,0.00704346,
5300,-0.00915527,0.00712891,
5302,-0.00793457,0.00719604,
5304,-0.00915527,0.00720825,
5306,-0.00793457,0.00728149,
5308,-0.00976563,0.00736694,
5310,-0.00427246,0.00733643,
5312,-0.00488281,0.00733032,
5314,-0.00610352,0.00738525,
5316,-0.00976563,0.00741577,
5318,-0.00488281,0.00740967,
5320,-0.00854492,0.00741577,
5322,-0.00549316,0.00736084,
5324,-0.00244141,0.00731812,
5326,-0.010376,0.0072937,
5328,-0.010376,0.00726929,
5330,-0.00793457,0.00727539,
5332,-0.00976563,0.00723877,
5334,0.000610352,0.00716553,
5336,-0.0128174,0.00724487,
5338,-0.00488281,0.00722046,
5340,-0.00549316,0.00720215,
5342,-0.0012207,0.00714722,
5344,-0.00732422,0.00716553,
5346,-0.00610352,0.00717163,
5348,-0.00427246,0.00715942,
5350,-0.00366211,0.00715332,
5352,-0.00366211,0.0071106,
5354,-0.00854492,0.00714111,
5356,-0.00854492,0.00717773,
5358,-0.00305176,0.00720215,
5360,-0.00549316,0.00716553,
5362,-0.00305176,0.00716553,
5364,-0.00671387,0.00721436,
5366,-0.00732422,0.00724487,
5368,-0.00366211,0.00723267,
5370,-0.00427246,0.00725098,
5372,-0.00488281,0.00725708,
5374,-0.00427246,0.00727539,
5376,-0.0109863,0.00734253,
5378,0.0012207,0.00731812,
5380,-0.00976563,0.00740967,
5382,-0.00610352,0.00742187,
5384,-0.0012207,0.00734863,
5386,-0.00976563,0.00742187,
5388,-0.00549316,0.00744019,
5390,0,0.00737915,
5392,-0.00427246,0.00739136,
5394,-0.00610352,0.00736694,
5396,-0.00793457,0.00741577,
5398,-0.00427246,0.00742798,
5400,-0.00793457,0.00743408,
5402,-0.00610352,0.00740356,
5404,-0.00915527,0.00740356,
5406,-0.010376,0.00740967,
5408,-0.00488281,0.00739136,
5410,-0.00915527,0.00740356,
5412,-0.00549316,0.00740967,
5414,-0.00976563,0.00743408,
5416,-0.00732422,0.00737915,
5418,-0.00976563,0.00740967,
5420,-0.0115967,0.00744019,
5422,-0.00488281,0.00742798,
5424,-0.00915527,0.0074707,
5426,-0.0134277,0.00748901,
5428,-0.00854492,0.00754395,
5430,-0.00976563,0.00751343,
5432,-0.00793457,0.00751343,
5434,-0.00183105,0.00751343,
5436,-0.00854492,0.00753784,
5438,-0.00610352,0.00755005,
5440,-0.00305176,0.00751953,
5442,-0.00549316,0.00754395,
5444,-0.00366211,0.00752563,
5446,-0.00488281,0.00750732,
5448,-0.00305176,0.00749512,
5450,-0.00549316,0.00747681,
5452,-0.00427246,0.0074585,
5454,-0.00610352,0.00739746,
5456,-0.00671387,0.00731812,
5458,-0.000610352,0.00728149,
5460,-0.00549316,0.00727539,
5462,-0.00244141,0.00719604,
5464,-0.00244141,0.00708008,
5466,-0.00488281,0.00703735,
5468,-0.00427246,0.00701294,
5470,-0.00976563,0.00698242,
5472,0.000610352,0.00687256,
5474,-0.00427246,0.00681763,
5476,-0.0115967,0.00675049,
5478,-0.00915527,0.00672607,
5480,0.0012207,0.006604,
5482,-0.00732422,0.00654297,
5484,-0.0012207,0.00648804,
5486,-0.0012207,0.00632935,
5488,0.000610352,0.00628662,
5490,0.00183105,0.00623779,
5492,0,0.00604858,
5494,0.0012207,0.00596313,
5496,-0.0012207,0.00595093,
5498,-0.0012207,0.00582886,
5500,-0.00366211,0.00577393,
5502,-0.00366211,0.0057312,
5504,-0.00549316,0.00569458,
5506,-0.00732422,0.00568848,
5508,-0.00366211,0.00562744,
5510,-0.00671387,0.00565186,
5512,-0.00366211,0.00563965,
5514,-0.00427246,0.00562134,
5516,-0.00854492,0.00560913,
5518,-0.00427246,0.00560303,
5520,-0.00793457,0.00559692,
5522,-0.0109863,0.00565186,
5524,-0.00549316,0.00568237,
5526,-0.00915527,0.00567017,
5528,-0.00732422,0.00563965,
5530,-0.00549316,0.00561523,
5532,0.00244141,0.00554199,
5534,-0.00915527,0.00562744,
5536,-0.00305176,0.00552979,
5538,-0.000610352,0.00548706,
5540,-0.00183105,0.00545044,
5542,0,0.00543823,
5544,-0.00793457,0.00544434,
5546,-0.00183105,0.00540161,
5548,0.000610352,0.00536499,
5550,0,0.00532837,
5552,-0.00427246,0.00533447,
5554,-0.00183105,0.00526733,
5556,-0.00244141,0.0052063,
5558,0.00183105,0.00519409,
5560,-0.00549316,0.00519409,
5562,-0.00244141,0.00518799,
5564,-0.00305176,0.00515137,
5566,-0.010376,0.00518188,
5568,0.00244141,0.00516968,
5570,0,0.00512695,
5572,-0.00671387,0.00514526,
5574,0.00183105,0.00512085,
5576,-0.00488281,0.00505981,
5578,0,0.00504761,
5580,0,0.00494995,
5582,-0.00427246,0.00493164,
5584,0.00183105,0.00493774,
5586,-0.00183105,0.0048584,
5588,-0.0012207,0.00481567,
5590,-0.00183105,0.00483398,
5592,-0.00244141,0.00481567,
5594,-0.00244141,0.00477905,
5596,-0.00366211,0.00473633,
5598,-0.00244141,0.00471802,
5600,-0.00610352,0.00469971,
5602,-0.00488281,0.0046875,
5604,-0.00488281,0.00464478,
5606,-0.00671387,0.00460815,
5608,-0.00244141,0.00458374,
5610,-0.00549316,0.00454712,
5612,0.0012207,0.00450439,
5614,-0.00610352,0.00446777,
5616,-0.00427246,0.00443726,
5618,0,0.0043396,
5620,-0.00732422,0.00429688,
5622,-0.00183105,0.00426636,
5624,0.0012207,0.00418701,
5626,-0.00976563,0.00415039,
5628,-0.00427246,0.00410767,
5630,-0.0012207,0.00402222,
5632,-0.00793457,0.00402222,
5634,0,0.00400391,
5636,-0.00366211,0.00395508,
5638,-0.00610352,0.00395508,
5640,0.00244141,0.00394897,
5642,-0.00671387,0.00396118,
5644,-0.00671387,0.0039917,
5646,-0.0012207,0.00395508,
5648,0,0.00392456,
5650,-0.00488281,0.00391846,
5652,-0.00488281,0.00392456,
5654,-0.00732422,0.00393677,
5656,-0.00732422,0.00394287,
5658,-0.00183105,0.00395508,
5660,-0.00488281,0.00394897,
5662,-0.00671387,0.0039917,
5664,-0.00427246,0.00401001,
5666,-0.00976563,0.00405884,
5668,-0.00244141,0.00404053,
5670,-0.00488281,0.0039917,
5672,-0.00488281,0.00403442,
5674,-0.00366211,0.00402832,
5676,-0.00854492,0.0039978,
5678,-0.00427246,0.00394897,
5680,-0.00366211,0.00397339,
5682,-0.010376,0.00400391,
5684,-0.00183105,0.00401001,
5686,-0.00488281,0.00404663,
5688,-0.00427246,0.00408325,
5690,-0.00366211,0.00410156,
5692,-0.00366211,0.00413818,
5694,-0.00305176,0.00415649,
5696,-0.00793457,0.00422363,
5698,-0.00244141,0.00423584,
5700,-0.00488281,0.00424805,
5702,-0.00976563,0.00430908,
5704,-0.00610352,0.00431519,
5706,-0.00732422,0.00431519,
5708,-0.00549316,0.0043335,
5710,-0.00671387,0.0043335,
5712,-0.00671387,0.00436401,
5714,-0.00244141,0.0043457,
5716,-0.00793457,0.0043396,
5718,-0.00427246,0.0043396,
5720,-0.00732422,0.0043335,
5722,-0.00671387,0.00429077,
5724,-0.00305176,0.00426636,
5726,-0.0115967,0.00429077,
5728,-0.00671387,0.00428467,
5730,-0.00732422,0.00430298,
5732,-0.00854492,0.00436401,
5734,-0.000610352,0.00427856,
5736,-0.012207,0.00437012,
5738,-0.00366211,0.00440063,
5740,-0.00610352,0.00444336,
5742,-0.00671387,0.0045105,
5744,-0.00732422,0.00450439,
5746,-0.00610352,0.00454712,
5748,-0.00732422,0.00461426,
5750,-0.00854492,0.00469971,
5752,-0.00732422,0.00473022,
5754,-0.00671387,0.00477905,
5756,-0.00854492,0.00484009,
5758,-0.00549316,0.00487671,
5760,-0.00244141,0.00484619,
5762,-0.00793457,0.00490112,
5764,-0.00549316,0.00492554,
5766,-0.00976563,0.00491943,
5768,-0.00610352,0.00495605,
5770,-0.00366211,0.00499268,
5772,-0.0109863,0.0050354,
5774,-0.0012207,0.0050293,
5776,-0.0109863,0.00509033,
5778,-0.00488281,0.00513916,
5780,-0.00488281,0.00518799,
5782,-0.00671387,0.0052124,
5784,-0.0012207,0.0052063,
5786,-0.00305176,0.00521851,
5788,-0.00610352,0.00526733,
5790,-0.00488281,0.00529785,
5792,-0.00549316,0.00532837,
5794,-0.00427246,0.00534668,
5796,-0.010376,0.00541382,
5798,-0.00610352,0.00545044,
5800,-0.00915527,0.00548096,
5802,-0.00976563,0.00552979,
5804,-0.00854492,0.00556641,
5806,-0.0115967,0.00561523,
5808,-0.00732422,0.00566406,
5810,-0.00732422,0.00568237,
5812,-0.010376,0.00577393,
5814,-0.00732422,0.00578613,
5816,-0.00854492,0.00582886,
5818,-0.00610352,0.00588989,
5820,-0.00915527,0.0059082,
5822,-0.00793457,0.00596924,
5824,-0.00305176,0.00598755,
5826,-0.0109863,0.00599976,
5828,-0.00610352,0.00601807,
5830,-0.00488281,0.00605469,
5832,-0.00976563,0.006073,
5834,-0.0012207,0.00608521,
5836,-0.00427246,0.00609131,
5838,-0.00427246,0.006073,
5840,-0.00488281,0.00609741,
5842,-0.00732422,0.00610352,
5844,-0.000610352,0.00604248,
5846,-0.00549316,0.00608521,
5848,-0.00488281,0.00613403,
5850,-0.00915527,0.00617676,
5852,-0.00244141,0.00615234,
5854,-0.00488281,0.00612793,
5856,-0.0109863,0.00616455,
5858,-0.0012207,0.00615845,
5860,-0.00549316,0.00616455,
5862,-0.00366211,0.00613403,
5864,-0.00427246,0.00613403,
5866,-0.00793457,0.00611572,
5868,-0.00244141,0.00611572,
5870,-0.00610352,0.00612793,
5872,-0.00427246,0.00612183,
5874,-0.00305176,0.00611572,
5876,-0.00854492,0.00611572,
5878,-0.00366211,0.00610962,
5880,-0.00427246,0.00611572,
5882,-0.00549316,0.00606689,
5884,-0.00366211,0.00608521,
5886,-0.00671387,0.00610352,
5888,-0.00427246,0.00610352,
5890,-0.00549316,0.00612183,
5892,-0.00610352,0.00614624,
5894,-0.00732422,0.00618896,
5896,-0.00549316,0.00616455,
5898,-0.00610352,0.00620117,
5900,-0.00610352,0.00621338,
5902,-0.00671387,0.00618286,
5904,-0.00732422,0.00619507,
5906,-0.010376,0.00622559,
5908,-0.00366211,0.00620728,
5910,-0.00610352,0.00620117,
5912,-0.00549316,0.00618896,
5914,-0.00488281,0.00621338,
5916,-0.00854492,0.00621948,
5918,-0.00244141,0.00620117,
5920,-0.00488281,0.00617676,
5922,-0.00549316,0.00616455,
5924,-0.0012207,0.00614624,
5926,-0.00915527,0.00612183,
5928,-0.00427246,0.00609741,
5930,-0.00366211,0.00606079,
5932,-0.0146484,0.00612183,
5934,-0.00305176,0.00614624,
5936,-0.0109863,0.00613403,
5938,-0.00305176,0.00612793,
5940,-0.00793457,0.00614624,
5942,-0.00854492,0.00616455,
5944,-0.00671387,0.00615845,
5946,-0.00671387,0.00616455,
5948,-0.00488281,0.00614014,
5950,-0.00671387,0.00612183,
5952,-0.00549316,0.00610352,
5954,-0.00488281,0.00608521,
5956,-0.00854492,0.00608521,
5958,-0.00183105,0.00604858,
5960,-0.00427246,0.00606689,
5962,-0.00305176,0.00601807,
5964,-0.00366211,0.00599976,
5966,-0.00610352,0.00596313,
5968,-0.00244141,0.00592651,
5970,-0.00610352,0.00595093,
5972,-0.00549316,0.005896,
5974,-0.00305176,0.00591431,
5976,-0.00976563,0.0059021,
5978,-0.00488281,0.0059021,
5980,-0.00305176,0.00588379,
5982,-0.0109863,0.00592651,
5984,-0.0012207,0.00592651,
5986,-0.00183105,0.00591431,
5988,-0.00488281,0.0059021,
5990,-0.00488281,0.0059021,
5992,-0.00793457,0.00592651,
5994,-0.00305176,0.00591431,
5996,-0.00549316,0.00586548,
5998,-0.00549316,0.00585938,
6000,-0.00732422,0.00584106,
6002,-0.00549316,0.00579834,
6004,-0.00610352,0.00577393,
6006,-0.00854492,0.00574341,
6008,-0.00244141,0.00569458,
6010,-0.00549316,0.00567627,
6012,-0.00549316,0.00562744,
6014,-0.00427246,0.00559692,
6016,-0.00976563,0.00560913,
6018,-0.00488281,0.00559692,
6020,-0.010376,0.00560913,
6022,-0.00854492,0.00561523,
6024,-0.00183105,0.00560303,
6026,-0.012207,0.00561523,
6028,-0.010376,0.00565796,
6030,-0.00671387,0.00567627,
6032,-0.00549316,0.00563354,
6034,-0.0012207,0.00563354,
6036,-0.00732422,0.00566406,
6038,-0.00488281,0.00567017,
6040,-0.0012207,0.00563354,
6042,-0.00427246,0.00560303,
6044,-0.00427246,0.00563965,
6046,-0.000610352,0.00559082,
6048,-0.00549316,0.00559692,
6050,-0.00671387,0.00557251,
6052,-0.00366211,0.00558472,
6054,-0.00488281,0.00558472,
6056,-0.00793457,0.0055542,
6058,-0.00366211,0.00557861,
6060,-0.00854492,0.00560913,
6062,-0.00366211,0.00560913,
6064,-0.00366211,0.00560303,
6066,-0.00793457,0.00560303,
6068,-0.00488281,0.00562744,
6070,-0.00427246,0.00560913,
6072,-0.00610352,0.00562744,
6074,-0.00427246,0.00563965,
6076,-0.0109863,0.00566406,
6078,-0.00915527,0.00571899,
6080,-0.00366211,0.00571289,
6082,-0.00976563,0.00575562,
6084,-0.00305176,0.00574951,
6086,-0.010376,0.00578613,
6088,-0.00305176,0.00577393,
6090,-0.00244141,0.00574341,
6092,-0.00671387,0.00574951,
6094,-0.00366211,0.00571289,
6096,-0.00549316,0.00571289,
6098,-0.00183105,0.00567017,
6100,-0.00732422,0.00568237,
6102,-0.00427246,0.00565796,
6104,-0.00793457,0.00566406,
6106,-0.00549316,0.00561523,
6108,0.00183105,0.00559692,
6110,-0.00549316,0.00559082,
6112,-0.00427246,0.00557861,
6114,-0.00183105,0.0055481,
6116,-0.00549316,0.00551758,
6118,-0.00427246,0.00553589,
6120,-0.00732422,0.0055603,
6122,-0.00854492,0.00559082,
6124,-0.00488281,0.00562744,
6126,-0.0109863,0.00564575,
6128,-0.00854492,0.00568848,
6130,-0.00915527,0.00574341,
6132,-0.00976563,0.00569458,
6134,-0.00183105,0.00568237,
6136,-0.00976563,0.00567017,
6138,-0.00793457,0.00571899,
6140,-0.00427246,0.00568237,
6142,-0.00793457,0.00567627,
6144,-0.00549316,0.00566406,
6146,-0.00671387,0.00566406,
6148,-0.00671387,0.00568237,
6150,-0.00976563,0.00571289,
6152,-0.00793457,0.0057373,
6154,-0.00732422,0.00576172,
6156,-0.010376,0.00578003,
6158,-0.00488281,0.00581055,
6160,-0.00793457,0.00584717,
6162,-0.00610352,0.00587769,
6164,-0.00488281,0.00588989,
6166,-0.00854492,0.00591431,
6168,-0.00305176,0.00592041,
6170,-0.00610352,0.00592041,
6172,-0.0109863,0.00597534,
6174,-0.00305176,0.00597534,
6176,-0.00976563,0.00597534,
6178,-0.012207,0.00604858,
6180,-0.00549316,0.006073,
6182,-0.0115967,0.0060791,
6184,-0.00183105,0.00608521,
6186,-0.00610352,0.00612793,
6188,-0.00488281,0.00612793,
6190,-0.0012207,0.00609131,
6192,-0.00610352,0.006073,
6194,-0.00427246,0.00608521,
6196,-0.00549316,0.00608521,
6198,-0.00549316,0.00608521,
6200,-0.00671387,0.0060791,
6202,-0.00915527,0.00611572,
6204,-0.00793457,0.00613403,
6206,-0.0109863,0.00615845,
6208,-0.00549316,0.00618896,
6210,-0.00549316,0.00618896,
6212,-0.00366211,0.00617065,
6214,-0.00244141,0.00615234,
6216,-0.00671387,0.00612183,
6218,-0.00244141,0.00609741,
6220,-0.00793457,0.006073,
6222,-0.00488281,0.00603638,
6224,-0.00244141,0.00604248,
6226,-0.00854492,0.00600586,
6228,-0.00549316,0.00595703,
6230,-0.00915527,0.00598145,
6232,-0.00915527,0.00601807,
6234,-0.00305176,0.00603638,
6236,-0.00854492,0.00604858,
6238,-0.00610352,0.00606079,
6240,-0.00549316,0.00610352,
6242,-0.010376,0.00616455,
6244,-0.00976563,0.00621948,
6246,-0.00610352,0.00627441,
6248,-0.00671387,0.00628662,
6250,-0.010376,0.00632324,
6252,-0.010376,0.00639038,
6254,-0.00915527,0.00643311,
6256,-0.0115967,0.00646973,
6258,-0.0109863,0.00654297,
6260,-0.00427246,0.00650024,
6262,-0.00976563,0.00656128,
6264,-0.00671387,0.0065918,
6266,-0.0146484,0.00665894,
6268,-0.00976563,0.00670776,
6270,-0.0134277,0.00679932,
6272,-0.0115967,0.00685425,
6274,-0.0109863,0.00692139,
6276,-0.0189209,0.00700073,
6278,-0.0140381,0.00704956,
6280,-0.0128174,0.00714111,
6282,-0.0146484,0.00718994,
6284,-0.00854492,0.00724487,
6286,-0.010376,0.00724487,
6288,-0.0115967,0.00733032,
6290,-0.00793457,0.00738525,
6292,-0.012207,0.00744019,
6294,-0.0115967,0.00751953,
6296,-0.00854492,0.00755005,
6298,-0.010376,0.0076355,
6300,-0.00854492,0.00764771,
6302,-0.00854492,0.00769043,
6304,-0.00793457,0.00769043,
6306,-0.00854492,0.00772095,
6308,-0.00366211,0.00773926,
6310,-0.00610352,0.00774536,
6312,-0.0012207,0.00771484,
6314,-0.00610352,0.00775757,
6316,-0.00793457,0.00778198,
6318,-0.00366211,0.00777588,
6320,-0.00549316,0.00775757,
6322,-0.00732422,0.00774536,
6324,-0.00305176,0.00772705,
6326,-0.00854492,0.00770264,
6328,-0.00549316,0.00767212,
6330,-0.00610352,0.0076416,
6332,-0.00671387,0.00761108,
6334,0,0.00759277,
6336,-0.00488281,0.00754395,
6338,-0.00305176,0.00749512,
6340,-0.00488281,0.00750122,
6342,-0.00366211,0.0074585,
6344,-0.0012207,0.00741577,
6346,-0.00732422,0.00742187,
6348,-0.00488281,0.00740356,
6350,-0.00244141,0.00733032,
6352,-0.00549316,0.00730591,
6354,-0.00671387,0.0072998,
6356,-0.00610352,0.00725708,
6358,-0.00183105,0.00722656,
6360,-0.00366211,0.00718384,
6362,-0.00183105,0.00714111,
6364,-0.00488281,0.00714111,
6366,-0.00793457,0.00713501,
6368,-0.00244141,0.00712891,
6370,-0.00732422,0.00714111,
6372,-0.00793457,0.0071106,
6374,-0.00183105,0.00709839,
6376,-0.00976563,0.00709839,
6378,-0.00488281,0.00702515,
6380,-0.00366211,0.00700684,
6382,-0.00671387,0.00695801,
6384,0,0.0069397,
6386,-0.00488281,0.00692749,
6388,-0.00244141,0.00690308,
6390,-0.000610352,0.00689697,
6392,-0.00610352,0.00689697,
6394,-0.00549316,0.00690918,
6396,-0.00427246,0.00689697,
6398,-0.00549316,0.00689697,
6400,-0.00671387,0.00689697,
6402,-0.00549316,0.00686035,
6404,-0.00732422,0.00685425,
6406,-0.00366211,0.00678101,
6408,-0.0109863,0.00683594,
6410,-0.00488281,0.00682983,
6412,-0.00244141,0.00681763,
6414,-0.00183105,0.00681152,
6416,-0.00915527,0.00683594,
6418,-0.00488281,0.00686035,
6420,-0.010376,0.00688477,
6422,-0.00610352,0.00689697,
6424,0.00183105,0.00689087,
6426,-0.0146484,0.0069519,
6428,-0.00244141,0.00692139,
6430,-0.00732422,0.00690308,
6432,-0.00854492,0.00689697,
6434,0.00183105,0.00688477,
6436,-0.00244141,0.00682373,
6438,-0.00366211,0.00679932,
6440,-0.0012207,0.00675659,
6442,-0.00366211,0.00668945,
6444,-0.00366211,0.00662842,
6446,-0.00488281,0.00661621,
6448,-0.00305176,0.00657959,
6450,-0.00671387,0.00654297,
6452,-0.00488281,0.00648804,
6454,-0.00427246,0.00643921,
6456,-0.00732422,0.00639648,
6458,-0.00549316,0.00634155,
6460,-0.00244141,0.00632324,
6462,-0.0012207,0.00623779,
6464,-0.00427246,0.00621338,
6466,-0.00793457,0.00614624,
6468,0.0012207,0.00606079,
6470,-0.00488281,0.00597534,
6472,-0.00549316,0.00591431,
6474,-0.000610352,0.00581055,
6476,-0.00732422,0.00569458,
6478,-0.00366211,0.00559082,
6480,-0.00366211,0.00549927,
6482,-0.00549316,0.00540771,
6484,0.000610352,0.00532837,
6486,-0.00610352,0.00528564,
6488,-0.00427246,0.0052124,
6490,-0.00183105,0.00515137,
6492,-0.00732422,0.00510254,
6494,-0.00488281,0.0050354,
6496,-0.00549316,0.00500488,
6498,-0.00488281,0.00494995,
6500,-0.00488281,0.00491333,
6502,-0.00488281,0.00487671,
6504,-0.00976563,0.00489502,
6506,-0.00915527,0.00490112,
6508,0.00244141,0.00488892,
6510,-0.00793457,0.00490723,
6512,-0.00183105,0.00491333,
6514,-0.00549316,0.00490723,
6516,-0.00793457,0.00490723,
6518,0.0012207,0.00488281,
6520,-0.00854492,0.00491333,
6522,-0.00610352,0.00490112,
6524,0,0.00487061,
6526,-0.010376,0.00488892,
6528,-0.00793457,0.00491333,
6530,-0.00488281,0.00490112,
6532,-0.00915527,0.00492554,
6534,-0.00427246,0.00496826,
6536,-0.00915527,0.00501099,
6538,-0.00244141,0.00500488,
6540,-0.00488281,0.00500488,
6542,-0.00915527,0.00505981,
6544,0,0.00504761,
6546,-0.00183105,0.00499268,
6548,0,0.00494385,
6550,-0.00732422,0.00499268,
6552,0.00732422,0.00501099,
6554,0.0152588,0.00509644,
6556,0.00793457,0.00511475,
6558,-0.0164795,0.00526123,
6560,-0.00366211,0.00526123,
6562,0.00549316,0.00529785,
6564,-0.00244141,0.00527344,
6566,-0.0134277,0.00532837,
6568,-0.0134277,0.00543823,
6570,-0.0158691,0.00552368,
6572,-0.0128174,0.00557251,
6574,-0.00488281,0.00560303,
6576,-0.010376,0.00560913,
6578,-0.00183105,0.00557861,
6580,-0.00671387,0.00560913,
6582,-0.00915527,0.00563354,
6584,-0.00183105,0.00565186,
6586,0.00183105,0.00562134,
6588,-0.00732422,0.00567017,
6590,0.00183105,0.00568237,
6592,-0.00488281,0.00567017,
6594,-0.00549316,0.00567017,
6596,-0.00244141,0.00565186,
6598,-0.00305176,0.00562744,
6600,-0.00305176,0.00559082,
6602,-0.00732422,0.00560913,
6604,-0.00427246,0.00557861,
6606,-0.00610352,0.00560303,
6608,-0.00427246,0.00553589,
6610,-0.00671387,0.0055542,
6612,0.000610352,0.00553589,
6614,0,0.00551758,
6616,-0.00610352,0.00548706,
6618,-0.00183105,0.00545654,
6620,-0.00183105,0.00537109,
6622,-0.0012207,0.00532227,
6624,0.00244141,0.00532837,
6626,-0.00488281,0.00523071,
6628,0,0.0052063,
6630,-0.000610352,0.00513916,
6632,-0.00427246,0.00509644,
6634,0.00549316,0.00513306,
6636,0,0.00510864,
6638,-0.0012207,0.00508423,
6640,0.00244141,0.00509644,
6642,-0.00305176,0.00509033,
6644,0.0012207,0.00506592,
6646,-0.000610352,0.00502319,
6648,0,0.00499268,
6650,-0.0012207,0.00493774,
6652,-0.010376,0.00499268,
6654,-0.000610352,0.00495605,
6656,-0.00305176,0.00491333,
6658,-0.00305176,0.00488892,
6660,-0.00549316,0.00491943,
6662,-0.00427246,0.00494995,
6664,0.000610352,0.00491333,
6666,-0.00671387,0.00490112,
6668,-0.00305176,0.00491943,
6670,-0.00244141,0.00489502,
6672,-0.00732422,0.00491333,
6674,0,0.00490723,
6676,-0.00610352,0.00489502,
6678,-0.00305176,0.00488892,
6680,-0.00427246,0.00489502,
6682,-0.00488281,0.00488892,
6684,-0.000610352,0.00488892,
6686,-0.00244141,0.00485229,
6688,-0.00671387,0.00487671,
6690,-0.00183105,0.00487671,
6692,-0.00610352,0.0048645,
6694,-0.00488281,0.0048645,
6696,-0.00427246,0.00485229,
6698,-0.00488281,0.00485229,
6700,-0.00427246,0.00484619,
6702,-0.00488281,0.00484619,
6704,-0.00244141,0.00477295,
6706,-0.00427246,0.00472412,
6708,0.000610352,0.00470581,
6710,-0.00244141,0.00465088,
6712,-0.00366211,0.00466919,
6714,0.0012207,0.00462646,
6716,-0.00793457,0.00462646,
6718,-0.00427246,0.00465698,
6720,-0.00427246,0.00461426,
6722,-0.00610352,0.00461426,
6724,-0.00366211,0.00465088,
6726,-0.00854492,0.00463257,
6728,-0.00366211,0.00458984,
6730,-0.00793457,0.00462036,
6732,-0.00854492,0.00461426,
6734,-0.00244141,0.00459595,
6736,-0.00366211,0.00454102,
6738,-0.00610352,0.00457764,
6740,-0.00549316,0.00458374,
6742,-0.00549316,0.00454712,
6744,-0.00488281,0.00459595,
6746,-0.00549316,0.00463257,
6748,-0.00244141,0.00465698,
6750,-0.00671387,0.00465088,
6752,-0.00305176,0.00460815,
6754,-0.00305176,0.00448608,
6756,-0.00854492,0.00449219,
6758,-0.00244141,0.00435181,
6760,-0.00427246,0.00435791,
6762,-0.00366211,0.0043396,
6764,-0.00183105,0.0043335,
6766,-0.00610352,0.00426025,
6768,-0.00366211,0.0041626,
6770,-0.00427246,0.00404663,
6772,-0.00366211,0.00395508,
6774,-0.00244141,0.00393066,
6776,-0.00610352,0.00388794,
6778,-0.00244141,0.00389404,
6780,-0.00305176,0.00385742,
6782,-0.00671387,0.00383301,
6784,-0.00366211,0.00385132,
6786,-0.00244141,0.00385742,
6788,-0.00488281,0.00383301,
6790,-0.00244141,0.00383911,
6792,-0.00854492,0.00387573,
6794,-0.00488281,0.00386963,
6796,-0.00549316,0.00390015,
6798,-0.00671387,0.00393677,
6800,-0.00549316,0.00396118,
6802,-0.00854492,0.00397339,
6804,-0.00793457,0.00401001,
6806,-0.00793457,0.00402832,
6808,-0.00488281,0.00403442,
6810,-0.00732422,0.00404053,
6812,-0.00488281,0.00408325,
6814,-0.00183105,0.00410156,
6816,-0.00671387,0.00410767,
6818,-0.00183105,0.00410767,
6820,-0.00976563,0.00418701,
6822,-0.00366211,0.00421143,
6824,0.0012207,0.00419922,
6826,-0.00854492,0.00423584,
6828,-0.00305176,0.00426636,
6830,-0.00671387,0.00432739,
6832,-0.0109863,0.00439453,
6834,0.0012207,0.00435181,
6836,-0.00793457,0.00443115,
6838,-0.00488281,0.00446777,
6840,-0.00305176,0.00447388,
6842,-0.00854492,0.00452881,
6844,-0.00671387,0.00458374,
6846,-0.00427246,0.00462036,
6848,-0.00549316,0.00467529,
6850,-0.00549316,0.00471802,
6852,-0.00549316,0.00466919,
6854,-0.00488281,0.00471191,
6856,-0.00549316,0.00473633,
6858,-0.00244141,0.00473022,
6860,-0.00793457,0.00475464,
6862,-0.0012207,0.00472412,
6864,-0.00610352,0.00477905,
6866,-0.00671387,0.00477905,
6868,-0.00366211,0.00478516,
6870,-0.00671387,0.00482788,
6872,-0.00915527,0.00484619,
6874,-0.00366211,0.00488281,
6876,-0.00732422,0.00489502,
6878,-0.0012207,0.00487671,
6880,-0.00488281,0.00488281,
6882,-0.00854492,0.00491943,
6884,0.0012207,0.00492554,
6886,-0.00427246,0.00494385,
6888,-0.00427246,0.00491943,
6890,0,0.00490112,
6892,-0.00915527,0.00493164,
6894,-0.00610352,0.00494385,
6896,-0.00549316,0.00495605,
6898,-0.00671387,0.00497437,
6900,-0.00854492,0.00501709,
6902,-0.00549316,0.00502319,
6904,-0.00732422,0.00507202,
6906,-0.00976563,0.00512695,
6908,-0.00427246,0.00516357,
6910,-0.00793457,0.00521851,
6912,0,0.00518188,
6914,-0.00610352,0.00523071,
6916,-0.00854492,0.00523682,
6918,-0.00244141,0.00521851,
6920,-0.00976563,0.00527344,
6922,-0.00366211,0.00524902,
6924,-0.00183105,0.00523071,
6926,-0.0134277,0.00527954,
6928,-0.00549316,0.00529785,
6930,-0.00366211,0.00525513,
6932,-0.00793457,0.00524902,
6934,-0.00244141,0.00524902,
6936,-0.00244141,0.00523682,
6938,-0.00671387,0.00524292,
6940,0.00305176,0.00521851,
6942,-0.00854492,0.00524902,
6944,-0.00305176,0.00523071,
6946,-0.00366211,0.0052124,
6948,-0.00305176,0.00521851,
6950,-0.00244141,0.00517578,
6952,-0.00366211,0.00518188,
6954,-0.00549316,0.0052063,
6956,-0.00305176,0.00515137,
6958,-0.00366211,0.00516357,
6960,0,0.00512085,
6962,-0.00244141,0.00510864,
6964,-0.0012207,0.00510254,
6966,-0.00244141,0.00506592,
6968,-0.00183105,0.00504761,
6970,-0.00488281,0.00505371,
6972,-0.000610352,0.00502319,
6974,0,0.00499878,
6976,-0.00671387,0.00500488,
6978,0,0.00498047,
6980,-0.00366211,0.00498657,
6982,-0.0012207,0.00493164,
6984,0.00305176,0.00492554,
6986,-0.0012207,0.00491333,
6988,-0.00244141,0.00488892,
6990,0.00305176,0.00489502,
6992,-0.00610352,0.00487061,
6994,-0.000610352,0.00482788,
6996,-0.000610352,0.00477905,
6998,-0.00427246,0.00475464,
7000,-0.00366211,0.00473633,
7002,-0.00671387,0.00471802,
7004,-0.00427246,0.0046814,
7006,-0.00610352,0.00466309,
7008,-0.00488281,0.00466309,
7010,-0.00793457,0.00466919,
7012,-0.00793457,0.00469971,
7014,-0.00366211,0.00471802,
7016,-0.00854492,0.00473633,
7018,-0.00732422,0.00479126,
7020,-0.0134277,0.00482788,
7022,-0.00305176,0.00482178,
7024,-0.0012207,0.00482178,
7026,-0.00793457,0.00481567,
7028,-0.000610352,0.00479126,
7030,-0.0012207,0.00473633,
7032,-0.00488281,0.00467529,
7034,0.00610352,0.00472412,
7036,-0.0012207,0.00465698,
7038,-0.0012207,0.00462036,
7040,0.00244141,0.00461426,
7042,-0.0012207,0.00454102,
7044,-0.00244141,0.00449829,
7046,-0.00366211,0.00449219,
7048,0.000610352,0.00444336,
7050,-0.0012207,0.00440063,
7052,0.0012207,0.00435791,
7054,0.00183105,0.00432739,
7056,-0.00183105,0.00429077,
7058,0.000610352,0.00427246,
7060,0.00183105,0.00421143,
7062,0.00366211,0.00423584,
7064,0.00244141,0.00419922,
7066,0.0012207,0.00414429,
7068,-0.00244141,0.00413208,
7070,0.00183105,0.00408325,
7072,-0.000610352,0.0039978,
7074,0.00244141,0.0039856,
7076,0,0.00391235,
7078,0.00183105,0.00391846,
7080,0.000610352,0.00387573,
7082,0.000610352,0.00379639,
7084,0.00610352,0.00384521,
7086,0.00244141,0.0038269,
7088,0,0.00378418,
7090,0.00732422,0.00385742,
7092,-0.00183105,0.00378418,
7094,0.000610352,0.00372925,
7096,-0.00244141,0.00369873,
7098,0,0.00363159,
7100,-0.00183105,0.00356445,
7102,-0.00427246,0.00355225,
7104,-0.00305176,0.00350952,
7106,-0.00488281,0.00346069,
7108,-0.00366211,0.00345459,
7110,-0.00183105,0.00339355,
7112,-0.00610352,0.00345459,
7114,-0.00671387,0.00346069,
7116,-0.00366211,0.00341187,
7118,-0.00549316,0.00344238,
7120,-0.010376,0.00344849,
7122,-0.00427246,0.00345459,
7124,-0.00305176,0.0034668,
7126,-0.012207,0.00345459,
7128,-0.00244141,0.00342407,
7130,-0.00488281,0.00343628,
7132,-0.010376,0.00346069,
7134,-0.00305176,0.0034668,
7136,-0.00915527,0.00353394,
7138,-0.00610352,0.00352783,
7140,-0.00488281,0.00354614,
7142,-0.0109863,0.00357056,
7144,-0.00610352,0.00360107,
7146,-0.00671387,0.00363159,
7148,-0.00793457,0.00368042,
7150,-0.00549316,0.00371094,
7152,-0.00427246,0.00371704,
7154,-0.00549316,0.00371704,
7156,-0.00610352,0.00374756,
7158,-0.00366211,0.00374756,
7160,-0.0012207,0.00375977,
7162,-0.00244141,0.00375977,
7164,-0.00244141,0.00377197,
7166,-0.00427246,0.00379028,
7168,-0.00183105,0.00379028,
7170,-0.00305176,0.00377197,
7172,-0.00427246,0.00380859,
7174,-0.00244141,0.00383301,
7176,-0.00610352,0.0038269,
7178,-0.00305176,0.00385742,
7180,-0.00305176,0.00385132,
7182,-0.00915527,0.00393066,
7184,-0.000610352,0.00390625,
7186,-0.00488281,0.00394287,
7188,-0.00549316,0.00397339,
7190,-0.00305176,0.00397339,
7192,-0.00549316,0.00396729,
7194,-0.00366211,0.0039978,
7196,-0.000610352,0.0039978,
7198,-0.00732422,0.00402832,
7200,-0.00244141,0.00401611,
7202,-0.00244141,0.00397339,
7204,-0.00244141,0.00395508,
7206,-0.00488281,0.00394287,
7208,-0.000610352,0.00390015,
7210,-0.00671387,0.00388794,
7212,0,0.00380859,
7214,-0.00183105,0.00379028,
7216,-0.00549316,0.00375977,
7218,-0.000610352,0.00369263,
7220,-0.00854492,0.0036438,
7222,-0.00488281,0.00366211,
7224,0,0.0036499,
7226,-0.00793457,0.0036499,
7228,-0.00305176,0.00367432,
7230,-0.00305176,0.00369263,
7232,-0.00732422,0.00371704,
7234,0.0012207,0.00366821,
7236,-0.0012207,0.00366821,
7238,-0.00610352,0.00371704,
7240,-0.00427246,0.00373535,
7242,0,0.00372314,
7244,-0.00183105,0.00371704,
7246,-0.00610352,0.00374146,
7248,-0.00732422,0.00380859,
7250,-0.00366211,0.00383301,
7252,-0.00549316,0.00387573,
7254,-0.00244141,0.00388184,
7256,-0.00549316,0.00391846,
7258,-0.00488281,0.00396118,
7260,-0.00305176,0.00397339,
7262,-0.00183105,0.00395508,
7264,-0.000610352,0.00393677,
7266,-0.00244141,0.00394897,
7268,-0.00244141,0.00394897,
7270,-0.00427246,0.00397339,
7272,-0.00427246,0.00401001,
7274,0,0.0039856,
7276,-0.00488281,0.00403442,
7278,-0.00610352,0.00407715,
7280,-0.00366211,0.00410767,
7282,-0.00610352,0.0041626,
7284,0.000610352,0.00410767,
7286,0,0.00408325,
7288,-0.00732422,0.00415649,
7290,-0.0012207,0.00409546,
7292,-0.00610352,0.00413818,
7294,-0.00183105,0.00415039,
7296,-0.00488281,0.0041748,
7298,-0.00915527,0.00426636,
7300,-0.000610352,0.00425415,
7302,-0.00366211,0.00424805,
7304,-0.00366211,0.00425415,
7306,-0.00305176,0.00423584,
7308,0,0.00419922,
7310,-0.000610352,0.00418701,
7312,-0.000610352,0.00413208,
7314,0.00183105,0.00408325,
7316,-0.00366211,0.00408325,
7318,-0.00183105,0.00404663,
7320,-0.00549316,0.0039978,
7322,-0.00488281,0.00400391,
7324,0,0.00397339,
7326,-0.00671387,0.00391846,
7328,-0.00671387,0.00396118,
7330,-0.00244141,0.00393677,
7332,-0.00610352,0.00389404,
7334,-0.00366211,0.00390015,
7336,-0.0012207,0.0038208,
7338,-0.0012207,0.00377197,
7340,-0.00244141,0.00374756,
7342,-0.00244141,0.00366211,
7344,-0.0012207,0.00361328,
7346,-0.000610352,0.00355225,
7348,-0.00305176,0.00350342,
7350,-0.0012207,0.00346069,
7352,-0.00244141,0.00344238,
7354,-0.00488281,0.00343628,
7356,-0.00366211,0.00341187,
7358,0.00427246,0.00341797,
7360,-0.00488281,0.00345459,
7362,-0.00244141,0.00345459,
7364,0.000610352,0.00343628,
7366,-0.00610352,0.00345459,
7368,0,0.00343628,
7370,-0.00366211,0.00344238,
7372,-0.00427246,0.00344238,
7374,-0.000610352,0.00342407,
7376,-0.00793457,0.00344238,
7378,0,0.00341187,
7380,-0.00244141,0.00340576,
7382,-0.00488281,0.00336304,
7384,0,0.00335693,
7386,-0.000610352,0.00331421,
7388,-0.00244141,0.00328369,
7390,0.00244141,0.00327759,
7392,-0.00488281,0.00327148,
7394,-0.00305176,0.00326538,
7396,0,0.00325928,
7398,-0.000610352,0.00319214,
7400,-0.0012207,0.00317993,
7402,-0.000610352,0.00316162,
7404,-0.000610352,0.00314331,
7406,-0.00427246,0.00313721,
7408,0.00183105,0.00314941,
7410,0.00305176,0.00311279,
7412,-0.00244141,0.00313721,
7414,0.000610352,0.003125,
7416,-0.000610352,0.00307617,
7418,0.000610352,0.00307617,
7420,-0.00366211,0.00302734,
7422,-0.000610352,0.00298462,
7424,-0.0012207,0.00299683,
7426,-0.00549316,0.00297241,
7428,-0.00183105,0.00296021,
7430,-0.0012207,0.00294189,
7432,-0.00549316,0.00292358,
7434,0.0012207,0.00292358,
7436,-0.00427246,0.0029541,
7438,-0.00427246,0.00293579,
7440,0.00244141,0.00291748,
7442,-0.00549316,0.00297241,
7444,-0.00244141,0.00297852,
7446,-0.0012207,0.00292969,
7448,-0.00366211,0.00289307,
7450,-0.0012207,0.00286865,
7452,-0.00183105,0.00283203,
7454,-0.000610352,0.00281372,
7456,-0.00183105,0.0027771,
7458,-0.00244141,0.00275269,
7460,-0.00305176,0.00275269,
7462,0,0.00273438,
7464,0,0.00272827,
7466,-0.00671387,0.002771,
7468,0.000610352,0.00275269,
7470,-0.00427246,0.00275269,
7472,-0.00610352,0.002771,
7474,0.00244141,0.00279541,
7476,-0.00793457,0.00282593,
7478,-0.0012207,0.0027771,
7480,-0.00549316,0.00279541,
7482,0,0.00273438,
7484,0.00305176,0.00275879,
7486,-0.00488281,0.00280762,
7488,0.0012207,0.00274658,
7490,0.00610352,0.00279541,
7492,-0.00488281,0.0027832,
7494,0.0012207,0.0027771,
7496,-0.00366211,0.00276489,
7498,-0.0012207,0.00268555,
7500,-0.0012207,0.00269165,
7502,-0.00305176,0.00268555,
7504,-0.00488281,0.00269775,
7506,-0.0012207,0.00267944,
7508,-0.000610352,0.00268555,
7510,-0.00183105,0.00269775,
7512,-0.00183105,0.00270996,
7514,0,0.00269165,
7516,-0.00183105,0.00267334,
7518,-0.00183105,0.00267334,
7520,-0.00305176,0.00264893,
7522,-0.00366211,0.00263672,
7524,-0.000610352,0.00264282,
7526,-0.0012207,0.00258789,
7528,0.00366211,0.00255737,
7530,-0.00244141,0.00255737,
7532,-0.00427246,0.00253906,
7534,0.00488281,0.00255127,
7536,-0.00305176,0.00256958,
7538,-0.000610352,0.00256348,
7540,0,0.00253906,
7542,-0.00732422,0.00258789,
7544,-0.00305176,0.0026062,
7546,-0.00427246,0.00264282,
7548,-0.00732422,0.00268555,
7550,-0.000610352,0.00267944,
7552,-0.00549316,0.00270996,
7554,-0.00366211,0.00269775,
7556,-0.00305176,0.00269165,
7558,-0.00183105,0.00266724,
7560,-0.00305176,0.00264893,
7562,-0.00244141,0.00264893,
7564,0.000610352,0.00264893,
7566,-0.00305176,0.00261841,
7568,-0.0012207,0.00263062,
7570,0.00366211,0.00263062,
7572,0.00793457,0.00266724,
7574,0.012207,0.0027832,
7576,0,0.00270386,
7578,0.0219727,0.00292358,
7580,0.0219727,0.0031189,
7582,0.0262451,0.00333252,
7584,0.0366211,0.00369873,
7586,0.0592041,0.00428467,
7588,0.0378418,0.00463867,
7590,0.0579834,0.00519409,
7592,0.00305176,0.00517578,
7594,0.0231934,0.0053772,
7596,0.0708008,0.00608521,
7598,0.0238037,0.00631714,
7600,-0.0189209,0.00649414,
7602,-0.00488281,0.00653687,
7604,-0.00549316,0.00658569,
7606,-0.0115967,0.00665894,
7608,0.0457764,0.00709839,
7610,0.0604248,0.00767212,
7612,-0.0457764,0.00810547,
7614,-0.0152588,0.00825195,
7616,0.0482178,0.00872803,
7618,0.0622559,0.00934448,
7620,-0.0488281,0.00979614,
7622,-0.0445557,0.0102356,
7624,0.0952148,0.0111755,
7626,0.0823975,0.0119446,
7628,-0.0646973,0.0125732,
7630,0.0653076,0.0132141,
7632,0.110474,0.0142639,
7634,0.137939,0.0156311,
7636,0.122681,0.0168152,
7638,0.133057,0.018103,
7640,0.174561,0.0198242,
7642,0.0756836,0.0205261,
7644,0.00854492,0.0205872,
7646,-0.0408936,0.0209839,
7648,0.00244141,0.0209717,
7650,0.0378418,0.0213379,
7652,0.101318,0.0223328,
7654,0.0177002,0.0225037,
7656,-0.32959,0.0257813,
7658,0.0933838,0.0266907,
7660,0.198975,0.0286499,
7662,0.146484,0.0301147,
7664,-0.119629,0.031311,
7666,-0.274658,0.0339905,
7668,0.0463867,0.0344482,
7670,-0.158081,0.0359863,
7672,-0.153809,0.0374634,
7674,-0.0299072,0.037738,
7676,-0.199585,0.0396545,
7678,-0.0836182,0.0404785,
7680,-0.115356,0.0415771,
7682,-0.0750732,0.0423279,
7684,0.0390625,0.042688,
7686,0.088501,0.0435242,
7688,0.115967,0.0446716,
7690,0.088501,0.0454956,
7692,-0.00244141,0.0454712,
7694,-0.0158691,0.0456177,
7696,0.128784,0.0468689,
7698,0.211182,0.0489685,
7700,0.0531006,0.0494873,
7702,-0.132446,0.0507813,
7704,0.0341797,0.0510742,
7706,-0.032959,0.0513916,
7708,-0.10376,0.0524231,
7710,-0.00610352,0.0524658,
7712,-0.022583,0.0526733,
7714,-0.101929,0.0536926,
7716,0.0488281,0.0541626,
7718,0.0189209,0.0543335,
7720,0.0500488,0.0548035,
7722,0.043335,0.0552002,
7724,0.150146,0.0566956,
7726,0.109863,0.057782,
7728,0.15625,0.0593079,
7730,0.0756836,0.0600403,
7732,0.00244141,0.060022,
7734,0.159302,0.0615662,
7736,0.184326,0.0633789,
7738,0.303345,0.0664063,
7740,-0.0250244,0.0666565,
7742,-0.0714111,0.0672974,
7744,0.228271,0.0695496,
7746,0.136719,0.070874,
7748,0.199585,0.0727966,
7750,-0.0860596,0.0736511,
7752,0.105591,0.0746521,
7754,0.206909,0.0766846,
7756,-0.118408,0.0778381,
7758,0.0567627,0.0783875,
7760,0.137939,0.0797363,
7762,0.0610352,0.0803223,
7764,0.0469971,0.0807861,
7766,-0.00854492,0.0808411,
7768,0.0109863,0.0809387,
7770,0.0823975,0.0817261,
7772,0.0970459,0.0826172,
7774,0.298462,0.0854797,
7776,0.161133,0.0870911,
7778,-0.150757,0.0883789,
7780,0.0958252,0.0891174,
7782,0.0848389,0.0897034,
7784,0.15686,0.0909058,
7786,0.197754,0.0922913,
7788,-0.195923,0.0938721,
7790,-0.0482178,0.0937744,
7792,0.510254,0.0988464,
7794,0.0494385,0.0991089,
7796,-0.349121,0.101892,
7798,0.164185,0.103296,
7800,0.0891113,0.103998,
7802,-0.0262451,0.104211,
7804,-0.130615,0.105463,
7806,-0.0952148,0.106299,
7808,-0.0268555,0.10611,
7810,-0.0421143,0.105927,
7812,0.0708008,0.106177,
7814,0.0634766,0.106659,
7816,0.0726318,0.106903,
7818,0.0579834,0.10686,
7820,0.128784,0.10766,
7822,0.123901,0.108453,
7824,0.0183105,0.107684,
7826,-0.0012207,0.106873,
7828,-0.00183105,0.106244,
7830,-0.00732422,0.105664,
7832,-0.012207,0.104681,
7834,-0.0622559,0.103925,
7836,-0.0842285,0.10354,
7838,-0.00610352,0.102271,
7840,-0.107422,0.101599,
7842,0.0238037,0.10108,
7844,-0.0292969,0.101288,
7846,0.0140381,0.101019,
7848,0.227051,0.103265,
7850,0.0262451,0.103149,
7852,-0.204468,0.104181,
7854,0.141602,0.10542,
7856,0.0769043,0.102893,
7858,0.0494385,0.102454,
7860,-0.142212,0.101886,
7862,-0.0238037,0.100659,
7864,0.0158691,0.0996216,
7866,0.0732422,0.0976074,
7868,-0.105591,0.0981995,
7870,0.0189209,0.0968079,
7872,0.0164795,0.0954346,
7874,-0.0201416,0.0953369,
7876,0.0476074,0.0938171,
7878,0.00793457,0.0930603,
7880,0.0299072,0.0922058,
7882,0.0671387,0.0921265,
7884,-0.140991,0.0931458,
7886,0.200195,0.0942627,
7888,-0.0842285,0.0939453,
7890,0.0610352,0.0936707,
7892,-0.0653076,0.0942993,
7894,-0.00732422,0.0942139,
7896,0.137939,0.0943054,
7898,-0.275269,0.0949463,
7900,0.211182,0.0965271,
7902,-0.276489,0.0979675,
7904,-0.0445557,0.0980713,
7906,0.0219727,0.0979614,
7908,-0.0805664,0.0977295,
7910,-0.0854492,0.0985229,
7912,-0.00793457,0.0983765,
7914,0.00915527,0.0974487,
7916,-0.000610352,0.0969666,
7918,-0.108643,0.0978638,
7920,0.109253,0.0984558,
7922,0.131836,0.0993408,
7924,-0.20752,0.0999146,
7926,-0.0177002,0.0989929,
7928,-0.0366211,0.0977966,
7930,-0.0134277,0.0971741,
7932,-0.0537109,0.0976868,
7934,-0.0946045,0.0970398,
7936,0.00854492,0.095282,
7938,0.00610352,0.0923096,
7940,-0.128784,0.0933472,
7942,0.022583,0.0928589,
7944,0.0671387,0.0912476,
7946,0.0549316,0.0904297,
7948,-0.177612,0.09021,
7950,0.0134277,0.0894836,
7952,0.0170898,0.0885986,
7954,-0.0421143,0.0869507,
7956,-0.0286865,0.0860535,
7958,-0.0482178,0.085968,
7960,0.0360107,0.0849487,
7962,0.0708008,0.0850464,
7964,-0.125732,0.0858337,
7966,-0.0445557,0.0861938,
7968,0.128784,0.0873718,
7970,0.100708,0.0875549,
7972,-0.142212,0.0880066,
7974,-0.0695801,0.0857178,
7976,0.0799561,0.084906,
7978,-0.112305,0.0845215,
7980,-0.0592041,0.0841553,
7982,0.0146484,0.0834534,
7984,-0.0372314,0.0822571,
7986,-0.146484,0.0817444,
7988,-0.0439453,0.0802246,
7990,0.0213623,0.0799561,
7992,0.0299072,0.0751526,
7994,-0.128784,0.075946,
7996,0.0012207,0.072467,
7998,-0.0201416,0.0710266,
8000,0.0238037,0.0703735,
8002,-0.0292969,0.0704041,
8004,-0.0616455,0.0697144,
8006,0.022583,0.068988,
8008,-0.020752,0.068927,
8010,-0.00244141,0.0685303,
8012,0.0177002,0.0679993,
8014,-0.0378418,0.0677429,
8016,-0.0640869,0.0676575,
8018,-0.0195313,0.0672729,
8020,-0.0177002,0.0661621,
8022,-0.0305176,0.0652283,
8024,-0.0274658,0.0653198,
8026,-0.0250244,0.0655579,
8028,-0.00305176,0.0655701,
8030,0.125122,0.066748,
8032,-0.0140381,0.0667664,
8034,-0.171509,0.0678589,
8036,0.0866699,0.0678833,
8038,0.00549316,0.0678772,
8040,-0.0378418,0.0671814,
8042,-0.0726318,0.0676697,
8044,-0.0726318,0.068103,
8046,-0.0537109,0.0684998,
8048,-0.0311279,0.0665405,
8050,-0.0183105,0.0664612,
8052,-0.0231934,0.0646484,
8054,-0.00610352,0.0632935,
8056,0.0250244,0.0627747,
8058,-0.0360107,0.0626404,
8060,-0.0292969,0.0615112,
8062,0.00244141,0.0612976,
8064,-0.0152588,0.0612915,
8066,-0.0262451,0.0608215,
8068,-0.0244141,0.0600098,
8070,-0.0250244,0.0600708,
8072,-0.0262451,0.0601685,
8074,-0.0164795,0.0601318,
8076,-0.020752,0.0598633,
8078,-0.0158691,0.0599426,
8080,-0.0152588,0.0597961,
8082,-0.0201416,0.0593262,
8084,-0.0158691,0.058075,
8086,-0.0183105,0.0562561,
8088,-0.0189209,0.055603,
8090,-0.0189209,0.0551819,
8092,-0.0292969,0.0548218,
8094,-0.0219727,0.0549683,
8096,-0.0268555,0.0538574,
8098,-0.0317383,0.0514221,
8100,-0.0189209,0.0494995,
8102,-0.0378418,0.047113,
8104,-0.0280762,0.0469482,
8106,-0.0323486,0.047052,
8108,-0.0286865,0.0465332,
8110,-0.032959,0.0460083,
8112,-0.0360107,0.0462891,
8114,-0.0402832,0.0466003,
8116,-0.0323486,0.0469177,
8118,-0.0427246,0.0462585,
8120,-0.0390625,0.0455566,
8122,-0.0439453,0.0446777,
8124,-0.0384521,0.0429871,
8126,-0.0421143,0.0432312,
8128,-0.0415039,0.04328,
8130,-0.0390625,0.0435364,
8132,-0.045166,0.0434509,
8134,-0.0396729,0.0429016,
8136,-0.045166,0.0432678,
8138,-0.0469971,0.0436768,
8140,-0.0396729,0.0427856,
8142,-0.0561523,0.0431213,
8144,-0.0469971,0.0429199,
8146,-0.0500488,0.0428711,
8148,-0.0512695,0.0416077,
8150,-0.0500488,0.0419739,
8152,-0.0531006,0.042334,
8154,-0.0512695,0.0424255,
8156,-0.0518799,0.0426575,
8158,-0.0512695,0.042688,
8160,-0.0500488,0.0428284,
8162,-0.0549316,0.0426697,
8164,-0.0518799,0.0419312,
8166,-0.0512695,0.0419983,
8168,-0.0524902,0.0412354,
8170,-0.0537109,0.0407654,
8172,-0.0549316,0.0398926,
8174,-0.0500488,0.0396973,
8176,-0.0549316,0.039447,
8178,-0.0512695,0.0388367,
8180,-0.0543213,0.0387878,
8182,-0.0537109,0.0391785,
8184,-0.0494385,0.0393005,
8186,-0.0518799,0.0383545,
8188,-0.0524902,0.0384399,
8190,-0.0469971,0.0386963,
8192,-0.0585938,0.0389832,
8194,-0.0512695,0.038208,
8196,-0.0531006,0.0387268,
8198,-0.0531006,0.0390564,
8200,-0.0543213,0.0393616,
8202,-0.0531006,0.0395996,
8204,-0.0531006,0.0395142,
8206,-0.0531006,0.0398193,
8208,-0.0524902,0.0401367,
8210,-0.0506592,0.0406189,
8212,-0.0469971,0.0409119,
8214,-0.0457764,0.0409912,
8216,-0.0482178,0.0408325,
8218,-0.0494385,0.0411316,
8220,-0.0463867,0.0414185,
8222,-0.0488281,0.0416016,
8224,-0.0463867,0.0417908,
8226,-0.0463867,0.0420044,
8228,-0.0469971,0.0424438,
8230,-0.0457764,0.0416504,
8232,-0.0482178,0.0419922,
8234,-0.0408936,0.040686,
8236,-0.0445557,0.0402649,
8238,-0.0421143,0.0406311,
8240,-0.0421143,0.0406738,
8242,-0.0463867,0.0404114,
8244,-0.0427246,0.0401123,
8246,-0.0402832,0.039978,
8248,-0.0415039,0.0400818,
8250,-0.0396729,0.0402954,
8252,-0.0378418,0.0404419,
8254,-0.0427246,0.0408081,
8256,-0.0335693,0.0408936,
8258,-0.03479,0.0408813,
8260,-0.0366211,0.0409546,
8262,-0.0384521,0.0413147,
8264,-0.0299072,0.0414612,
8266,-0.0360107,0.0415588,
8268,-0.0341797,0.0416565,
8270,-0.0335693,0.0417419,
8272,-0.03479,0.0418274,
8274,-0.0292969,0.0419556,
8276,-0.03479,0.0420959,
8278,-0.0286865,0.0422241,
8280,-0.0268555,0.0423401,
8282,-0.0323486,0.0424622,
8284,-0.0305176,0.0426086,
8286,-0.0280762,0.0427063,
8288,-0.0262451,0.0427795,
8290,-0.0256348,0.0428467,
8292,-0.0317383,0.0428711,
8294,-0.0268555,0.0429199,
8296,-0.0274658,0.042926,
8298,-0.0292969,0.0429016,
8300,-0.0183105,0.0428955,
8302,-0.0292969,0.0428101,
8304,-0.0280762,0.0428101,
8306,-0.0238037,0.0427246,
8308,-0.0244141,0.0426819,
8310,-0.0262451,0.0426147,
8312,-0.0268555,0.0425232,
8314,-0.020752,0.0423279,
8316,-0.0292969,0.0422974,
8318,-0.0299072,0.0421692,
8320,-0.020752,0.0419861,
8322,-0.0286865,0.0418335,
8324,-0.0177002,0.041626,
8326,-0.0256348,0.0414612,
8328,-0.0195313,0.0412415,
8330,-0.020752,0.0410583,
8332,-0.022583,0.0408325,
8334,-0.0183105,0.0406189,
8336,-0.0219727,0.040387,
8338,-0.0189209,0.0401062,
8340,-0.0177002,0.0398865,
8342,-0.0262451,0.0395874,
8344,-0.0195313,0.0393127,
8346,-0.0195313,0.0390076,
8348,-0.0195313,0.0386902,
8350,-0.0152588,0.0383423,
8352,-0.0170898,0.0379822,
8354,-0.0158691,0.0376282,
8356,-0.0140381,0.0372498,
8358,-0.0134277,0.0368713,
8360,-0.0146484,0.0365173,
8362,-0.0109863,0.0360779,
8364,-0.00793457,0.0356384,
8366,-0.0140381,0.0352661,
8368,-0.0140381,0.0348816,
8370,-0.010376,0.0344482,
8372,-0.0195313,0.0340942,
8374,-0.00854492,0.0336792,
8376,-0.010376,0.0332336,
8378,-0.012207,0.032843,
8380,-0.0152588,0.0324524,
8382,-0.0115967,0.0320312,
8384,-0.000610352,0.031543,
8386,-0.00976563,0.0311218,
8388,-0.012207,0.030719,
8390,-0.00732422,0.0303223,
8392,-0.010376,0.0298401,
8394,-0.00854492,0.0294128,
8396,-0.0134277,0.0290161,
8398,-0.0128174,0.0286133,
8400,-0.00854492,0.0281555,
8402,-0.0128174,0.0277527,
8404,-0.00976563,0.0273193,
8406,-0.00976563,0.026886,
8408,-0.0134277,0.0264954,
8410,-0.00976563,0.0260864,
8412,-0.010376,0.0257202,
8414,-0.00793457,0.0253418,
8416,-0.0128174,0.0249878,
8418,-0.010376,0.0245972,
8420,-0.00915527,0.0242249,
8422,-0.00915527,0.0238281,
8424,-0.00854492,0.0234497,
8426,-0.010376,0.0230896,
8428,-0.00610352,0.0226807,
8430,-0.00366211,0.0222595,
8432,-0.0134277,0.0219116,
8434,-0.00732422,0.0215759,
8436,-0.00976563,0.021228,
8438,-0.00976563,0.0209045,
8440,-0.00488281,0.0205322,
8442,-0.0140381,0.0202087,
8444,-0.0109863,0.0198914,
8446,-0.00610352,0.0195496,
8448,-0.0128174,0.0192627,
8450,-0.00793457,0.0189453,
8452,-0.00915527,0.0186584,
8454,-0.00976563,0.0183289,
8456,-0.00305176,0.0180237,
8458,-0.00671387,0.0177429,
8460,-0.00549316,0.0174316,
8462,-0.00549316,0.0171021,
