Alejandra-B-Musc-ABC-L01
Gráfico creado el:2026-06-03 15:45:53.898
Registro en:2026-06-03 15:46:44.817
2 mseg/muestras
2 canales
EMG
mV
EMG Integrado
mV-sec
milliSec,CH1,CH40,
,225654 samples,225654 samples,
0,0.0012207,1.2207E-05,
2,-0.00305176,4.27246E-05,
4,0.00244141,6.71387E-05,
6,-0.000610352,7.32422E-05,
8,-0.00427246,0.000115967,
10,0.00427246,0.000158691,
12,-0.00610352,0.000219727,
14,-0.000610352,0.00022583,
16,0.00183105,0.000244141,
18,-0.00793457,0.000323486,
20,-0.00183105,0.000341797,
22,-0.00732422,0.000415039,
24,-0.00854492,0.000500488,
26,0.000610352,0.000506592,
28,-0.00366211,0.000543213,
30,-0.00427246,0.000585937,
32,-0.00366211,0.000622559,
34,-0.00488281,0.000671387,
36,-0.00305176,0.000701904,
38,-0.00366211,0.000738525,
40,-0.00488281,0.000787354,
42,-0.00488281,0.000836182,
44,-0.00427246,0.000878906,
46,-0.00793457,0.000958252,
48,-0.00549316,0.00101318,
50,-0.00488281,0.00106201,
52,-0.000610352,0.00106812,
54,-0.0012207,0.00108032,
56,0.00183105,0.00109863,
58,-0.0115967,0.0012146,
60,0.000610352,0.0012207,
62,-0.00427246,0.00126343,
64,-0.00671387,0.00133057,
66,-0.00305176,0.00136108,
68,-0.0152588,0.00151367,
70,-0.00488281,0.0015625,
72,-0.00488281,0.00161133,
74,-0.00976563,0.00170898,
76,-0.00610352,0.00177002,
78,-0.00549316,0.00182495,
80,-0.00427246,0.00186768,
82,-0.00183105,0.00188599,
84,-0.00732422,0.00195923,
86,-0.00183105,0.00197754,
88,-0.00488281,0.00202637,
90,-0.00183105,0.00204468,
92,-0.00488281,0.00209351,
94,-0.00793457,0.00217285,
96,-0.00427246,0.00221558,
98,-0.00854492,0.00230103,
100,-0.00305176,0.00233154,
102,-0.012207,0.00245361,
104,0.00305176,0.00248413,
106,-0.00732422,0.00255737,
108,-0.00732422,0.00263062,
110,-0.00488281,0.00267944,
112,-0.00610352,0.00274048,
114,-0.00610352,0.00280151,
116,0.000610352,0.00280762,
118,-0.00732422,0.00288086,
120,-0.00671387,0.002948,
122,-0.00305176,0.00297852,
124,-0.0115967,0.00309448,
126,0.0012207,0.00310669,
128,-0.00366211,0.00314331,
130,-0.00427246,0.00318604,
132,0,0.00318604,
134,-0.00793457,0.00326538,
136,0.0012207,0.00327759,
138,-0.00427246,0.00332031,
140,-0.00488281,0.00336914,
142,-0.00488281,0.00341797,
144,-0.00549316,0.0034729,
146,-0.00488281,0.00352173,
148,-0.00732422,0.00359497,
150,0.000610352,0.00360107,
152,-0.00793457,0.00368042,
154,0.00183105,0.00369873,
156,-0.00183105,0.00371704,
158,-0.00610352,0.00377808,
160,-0.00305176,0.00380859,
162,-0.00305176,0.00383911,
164,-0.000610352,0.00384521,
166,-0.00610352,0.00390625,
168,-0.00549316,0.00396118,
170,-0.00915527,0.00405273,
172,0,0.00405273,
174,-0.00915527,0.00414429,
176,0,0.00414429,
178,-0.00671387,0.00421143,
180,-0.00732422,0.00428467,
182,-0.0012207,0.00429688,
184,-0.00671387,0.00436401,
186,-0.010376,0.00446777,
188,-0.00488281,0.0045166,
190,-0.00244141,0.00454102,
192,-0.0128174,0.00466919,
194,-0.0012207,0.0046814,
196,-0.00488281,0.00473022,
198,-0.010376,0.00483398,
200,0,0.00482178,
202,-0.00732422,0.0048645,
204,0.000610352,0.00484619,
206,-0.00854492,0.00492554,
208,-0.00488281,0.00493164,
210,-0.00366211,0.00492554,
212,-0.00427246,0.00490723,
214,-0.00610352,0.00496216,
216,-0.00427246,0.00498657,
218,-0.00793457,0.00498657,
220,-0.00244141,0.00499268,
222,-0.00488281,0.00496826,
224,-0.0109863,0.00499268,
226,0.000610352,0.00499268,
228,-0.00427246,0.00499878,
230,-0.00488281,0.00500488,
232,0.000610352,0.00497437,
234,-0.00732422,0.00499878,
236,-0.00549316,0.00502319,
238,-0.00244141,0.00501099,
240,-0.0115967,0.00507813,
242,-0.00305176,0.00505981,
244,-0.00549316,0.00507202,
246,-0.00854492,0.00507813,
248,-0.00488281,0.00507202,
250,-0.00610352,0.00508423,
252,-0.00610352,0.00513916,
254,-0.00183105,0.00514526,
256,-0.0012207,0.00513916,
258,-0.00793457,0.00510254,
260,0.0012207,0.00510864,
262,-0.00610352,0.00512695,
264,-0.00732422,0.00513306,
266,0.00244141,0.00512695,
268,-0.00732422,0.00504761,
270,-0.00610352,0.00505981,
272,-0.00366211,0.00504761,
274,-0.00305176,0.00498047,
276,-0.00244141,0.00494385,
278,-0.00305176,0.00491943,
280,-0.00366211,0.00491333,
282,0.00183105,0.00491333,
284,-0.00976563,0.00493774,
286,-0.000610352,0.00492554,
288,-0.00427246,0.00491943,
290,-0.0012207,0.00491333,
292,-0.00976563,0.00496216,
294,-0.0012207,0.00489502,
296,-0.00915527,0.00494385,
298,-0.00671387,0.00492554,
300,-0.0012207,0.00490723,
302,-0.00549316,0.00484009,
304,-0.000610352,0.00481567,
306,-0.000610352,0.00474854,
308,-0.00976563,0.00477295,
310,-0.0012207,0.00473633,
312,-0.00488281,0.00472412,
314,-0.00793457,0.00474243,
316,-0.00427246,0.00477905,
318,-0.00366211,0.00474243,
320,-0.00549316,0.00473022,
322,-0.00549316,0.00475464,
324,-0.00427246,0.0046814,
326,0.00183105,0.0046875,
328,-0.0012207,0.00466309,
330,-0.00488281,0.00466919,
332,0.00183105,0.0046875,
334,-0.00915527,0.00469971,
336,-0.00183105,0.00470581,
338,-0.00671387,0.00473022,
340,-0.00305176,0.00471191,
342,-0.00427246,0.00470581,
344,-0.00976563,0.00474854,
346,-0.00915527,0.00479126,
348,-0.00305176,0.00474854,
350,-0.00549316,0.00479736,
352,-0.00976563,0.00481567,
354,0.0012207,0.00480957,
356,-0.00488281,0.00484009,
358,-0.00732422,0.00485229,
360,-0.00244141,0.00484619,
362,-0.00732422,0.00488892,
364,-0.00427246,0.00492554,
366,0,0.0048645,
368,-0.010376,0.00491333,
370,-0.00427246,0.0048645,
372,-0.00427246,0.00490723,
374,-0.00854492,0.00490112,
376,-0.0012207,0.00491333,
378,-0.00671387,0.00491333,
380,-0.00793457,0.00491943,
382,0,0.00490723,
384,-0.0109863,0.00494995,
386,0.0012207,0.0048584,
388,-0.00732422,0.00488281,
390,-0.0012207,0.00487061,
392,-0.00732422,0.00481567,
394,-0.00610352,0.0048645,
396,-0.00610352,0.00487671,
398,-0.00793457,0.00485229,
400,-0.0012207,0.0048645,
402,-0.00793457,0.00487061,
404,-0.0012207,0.00487671,
406,-0.00366211,0.00482788,
408,-0.0109863,0.00488892,
410,-0.00244141,0.00487671,
412,-0.00305176,0.0048645,
414,-0.00610352,0.0048645,
416,-0.00549316,0.00487671,
418,-0.00671387,0.0048645,
420,-0.00488281,0.00488892,
422,-0.00976563,0.00493774,
424,-0.00549316,0.00488281,
426,0,0.00487671,
428,-0.00671387,0.00490112,
430,-0.00305176,0.00488281,
432,-0.00610352,0.00493774,
434,-0.00427246,0.00490723,
436,-0.0128174,0.00498047,
438,0.0012207,0.00496826,
440,-0.0115967,0.00496826,
442,-0.00366211,0.00497437,
444,-0.00488281,0.00496826,
446,-0.00671387,0.00494995,
448,-0.00671387,0.00496826,
450,0.00183105,0.00492554,
452,-0.00549316,0.00491943,
454,-0.000610352,0.00490723,
456,-0.00305176,0.00492554,
458,-0.00854492,0.00493164,
460,0.0012207,0.00493164,
462,-0.00366211,0.00490723,
464,-0.00610352,0.00489502,
466,-0.00305176,0.00490112,
468,-0.010376,0.00493164,
470,0.00305176,0.00490112,
472,-0.00549316,0.00491943,
474,-0.00732422,0.00496216,
476,-0.00183105,0.00495605,
478,-0.00549316,0.00498047,
480,-0.010376,0.00504761,
482,0.00183105,0.00504761,
484,-0.00610352,0.00501099,
486,-0.00610352,0.00506592,
488,-0.00366211,0.00505981,
490,-0.00488281,0.00509644,
492,-0.00610352,0.00505981,
494,-0.00488281,0.00509644,
496,-0.00488281,0.00505371,
498,-0.00976563,0.00508423,
500,-0.00549316,0.00512695,
502,-0.00366211,0.00510864,
504,-0.00671387,0.00516968,
506,-0.0012207,0.00517578,
508,-0.00915527,0.00516968,
510,-0.00610352,0.00521851,
512,-0.00244141,0.00519409,
514,-0.00671387,0.00518188,
516,0.0012207,0.00515137,
518,-0.00854492,0.0052002,
520,-0.00427246,0.00518799,
522,-0.00366211,0.00516968,
524,-0.00488281,0.00517578,
526,-0.00366211,0.00519409,
528,0.0012207,0.00519409,
530,-0.00854492,0.00523071,
532,-0.00183105,0.00523071,
534,-0.00671387,0.0052063,
536,-0.0012207,0.0052002,
538,-0.00610352,0.00519409,
540,-0.0115967,0.00527954,
542,-0.00305176,0.00526733,
544,-0.00671387,0.00523682,
546,-0.00488281,0.00519409,
548,-0.0140381,0.00530396,
550,-0.00427246,0.00529175,
552,-0.00488281,0.00524292,
554,-0.00427246,0.00527344,
556,-0.00549316,0.00527954,
558,-0.0115967,0.00532227,
560,0.000610352,0.00530396,
562,-0.0109863,0.00534058,
564,-0.00549316,0.00535278,
566,-0.00183105,0.00537109,
568,-0.0115967,0.0053833,
570,-0.00549316,0.00539551,
572,-0.00854492,0.00543823,
574,-0.00671387,0.00541992,
576,-0.00366211,0.00544434,
578,-0.00244141,0.00540161,
580,-0.00671387,0.0053894,
582,-0.000610352,0.00539551,
584,-0.00854492,0.00537109,
586,-0.00488281,0.00540771,
588,-0.0012207,0.00534668,
590,-0.00671387,0.00540161,
592,-0.00427246,0.00537109,
594,-0.00366211,0.00534668,
596,-0.00671387,0.00535278,
598,-0.00732422,0.00534668,
600,-0.00549316,0.0053894,
602,-0.00915527,0.00540161,
604,-0.00305176,0.00541992,
606,-0.00244141,0.00540771,
608,-0.00976563,0.00539551,
610,-0.00549316,0.00542603,
612,-0.00732422,0.00546875,
614,-0.00732422,0.00548096,
616,-0.00183105,0.00544434,
618,-0.00976563,0.00547485,
620,-0.00488281,0.00547485,
622,-0.00366211,0.00541382,
624,-0.00854492,0.00544434,
626,0,0.00544434,
628,-0.00427246,0.00541992,
630,-0.00366211,0.00542603,
632,0.000610352,0.00537109,
634,-0.00671387,0.00539551,
636,0.00244141,0.00529175,
638,-0.00183105,0.00529785,
640,-0.00427246,0.00522461,
642,0.0012207,0.0052002,
644,0.000610352,0.00515747,
646,-0.00610352,0.00515137,
648,-0.00427246,0.00512695,
650,0.00305176,0.00513916,
652,-0.00366211,0.00512085,
654,0.00244141,0.00513916,
656,0.00305176,0.00513916,
658,-0.00549316,0.00510864,
660,0.00793457,0.00517578,
662,-0.00427246,0.00518188,
664,-0.0012207,0.00513306,
666,0.00488281,0.00515137,
668,-0.00793457,0.00512695,
670,-0.00366211,0.00513306,
672,-0.000610352,0.00508423,
674,-0.00488281,0.00505981,
676,-0.00488281,0.00509033,
678,-0.0012207,0.00504761,
680,-0.00183105,0.00496216,
682,0,0.00494385,
684,-0.00366211,0.00491943,
686,-0.00488281,0.00490723,
688,-0.00244141,0.00489502,
690,-0.00183105,0.0048645,
692,-0.0115967,0.00491943,
694,-0.00610352,0.00493164,
696,-0.00305176,0.00491333,
698,-0.010376,0.00491943,
700,-0.00183105,0.00488281,
702,0.0012207,0.0048584,
704,0.000610352,0.00479736,
706,0.00976563,0.00488281,
708,-0.00793457,0.00487061,
710,0.0164795,0.00497437,
712,-0.0109863,0.00505981,
714,-0.00549316,0.00504761,
716,0.00732422,0.00510864,
718,0.0445557,0.00546875,
720,0.03479,0.00577393,
722,0.00183105,0.00575562,
724,-0.0488281,0.00619507,
726,0.0115967,0.00627441,
728,0.0311279,0.00657349,
730,-0.0109863,0.0065979,
732,-0.0219727,0.00679932,
734,-0.0305176,0.00703735,
736,0.0164795,0.00718994,
738,0.0982666,0.00811157,
740,0.0537109,0.00853271,
742,-0.101318,0.00951538,
744,-0.0610352,0.0100586,
746,0.0689697,0.0106995,
748,0.00976563,0.0106567,
750,-0.0561523,0.0111755,
752,-0.108032,0.012207,
754,-0.0585938,0.0127502,
756,-0.0195313,0.0128906,
758,0.065918,0.0134338,
760,0.139771,0.0148254,
762,-0.0280762,0.0149963,
764,-0.12085,0.0161499,
766,0.0799561,0.0169312,
768,0.0488281,0.0173035,
770,-0.0500488,0.017749,
772,-0.0970459,0.018634,
774,-0.0537109,0.019104,
776,-0.116577,0.0202332,
778,-0.0134277,0.020343,
780,-0.0445557,0.0207214,
782,-0.0463867,0.0211792,
784,-0.0323486,0.0214172,
786,0.0744629,0.022113,
788,0.0671387,0.0227722,
790,0.0720215,0.0234253,
792,-0.0714111,0.0240967,
794,0.0427246,0.0244873,
796,0.0866699,0.0252869,
798,-0.0671387,0.025885,
800,0.102539,0.0268555,
802,0.090332,0.0276672,
804,-0.187378,0.0295105,
806,-0.137329,0.0308594,
808,0.0909424,0.0316711,
810,-0.0726318,0.0323425,
812,-0.0848389,0.0331177,
814,-0.065918,0.0337036,
816,0.0299072,0.0339844,
818,0.0238037,0.0341248,
820,-0.0585938,0.0346619,
822,-0.0799561,0.0354248,
824,0.00854492,0.0354248,
826,0.0384521,0.0358093,
828,-0.0787354,0.036554,
830,0.00366211,0.036554,
832,-0.13916,0.0379395,
834,-0.0738525,0.0386108,
836,-0.00915527,0.038678,
838,0.057373,0.0392334,
840,-0.0610352,0.039801,
842,-0.0335693,0.0401245,
844,0.0512695,0.0406311,
846,0.110474,0.0416748,
848,0.00671387,0.0416992,
850,-0.0872803,0.0425415,
852,-0.00671387,0.042572,
854,0.0732422,0.04328,
856,-0.119629,0.0444458,
858,-0.0738525,0.0451294,
860,-0.0610352,0.0456604,
862,-0.00366211,0.0456543,
864,0.110474,0.0467468,
866,-0.112305,0.047821,
868,-0.0872803,0.0486145,
870,0.0244141,0.048822,
872,-0.0115967,0.0489319,
874,-0.057373,0.0494568,
876,0.00488281,0.0494568,
878,-0.0500488,0.0499451,
880,-0.109863,0.0510254,
882,0.0610352,0.0516357,
884,0.012207,0.0517212,
886,-0.101318,0.0526855,
888,0.111084,0.053772,
890,0.0238037,0.0539917,
892,-0.0939941,0.0548157,
894,0.022583,0.0549805,
896,0.0970459,0.0559204,
898,0.0421143,0.0562378,
900,-0.166626,0.0578857,
902,0.184326,0.0597168,
904,0.0299072,0.0600098,
906,-0.0970459,0.0608826,
908,0.0775146,0.0615784,
910,-0.114136,0.0625549,
912,0.0317383,0.0627625,
914,0.065918,0.0633667,
916,-0.0604248,0.0638977,
918,-0.0958252,0.0644104,
920,0.262451,0.066687,
922,-0.192261,0.0685913,
924,-0.0585938,0.068689,
926,0.0683594,0.0692566,
928,-0.0531006,0.0694763,
930,-0.0787354,0.0701538,
932,-0.0695801,0.0706299,
934,-0.0567627,0.0708923,
936,-0.0592041,0.0713196,
938,0.0671387,0.0710083,
940,0.146484,0.071936,
942,-0.0628662,0.0715515,
944,-0.0616455,0.0715576,
946,0.118408,0.072052,
948,-0.00244141,0.0719788,
950,-0.00671387,0.0714844,
952,0.0476074,0.0708801,
954,0.0341797,0.070636,
956,-0.146484,0.0719055,
958,-0.0250244,0.0714966,
960,0.343628,0.0735352,
962,-0.247192,0.0757263,
964,-0.0457764,0.0749756,
966,0.0610352,0.0747864,
968,0.0708008,0.0750061,
970,-0.0689697,0.0751953,
972,-0.106812,0.075293,
974,-0.0610352,0.0753662,
976,0.0158691,0.0743591,
978,0.00915527,0.0743164,
980,0.0183105,0.074054,
982,-0.00671387,0.0736572,
984,-0.0695801,0.0740295,
986,0.108643,0.0743713,
988,0.180664,0.0755066,
990,-0.00915527,0.0748779,
992,-0.0592041,0.0747559,
994,0.0964355,0.075293,
996,0.175171,0.076178,
998,-0.26001,0.0781067,
1000,0.0653076,0.0777344,
1002,-0.0726318,0.0775574,
1004,0.0799561,0.0764832,
1006,0.0262451,0.0753723,
1008,-0.211792,0.0765808,
1010,0.0531006,0.0763855,
1012,0.159912,0.0771362,
1014,-0.0921631,0.0773987,
1016,-0.020752,0.0773071,
1018,-0.0787354,0.0778564,
1020,0.043335,0.0777039,
1022,-0.0537109,0.0774414,
1024,-0.0280762,0.0776367,
1026,-0.108032,0.0783325,
1028,-0.0183105,0.0777283,
1030,0.12085,0.0789001,
1032,0.0927734,0.0784363,
1034,-0.101929,0.078717,
1036,0.0756836,0.0793823,
1038,-0.00305176,0.0788391,
1040,0.0640869,0.0788696,
1042,0.032959,0.0788635,
1044,-0.0860596,0.0792114,
1046,-0.0506592,0.0786133,
1048,-0.0219727,0.0787659,
1050,0.147705,0.0793701,
1052,-0.0201416,0.0795044,
1054,-0.100098,0.0797729,
1056,-0.0286865,0.0788635,
1058,0.200806,0.0801331,
1060,-0.124512,0.0807678,
1062,0.12207,0.0819519,
1064,0.137329,0.0822205,
1066,-0.41626,0.08526,
1068,0.132446,0.0857117,
1070,0.067749,0.086145,
1072,-0.0811768,0.0868408,
1074,-0.0872803,0.0871399,
1076,-0.101929,0.0881104,
1078,-0.0146484,0.0877563,
1080,-0.0341797,0.0869995,
1082,0.0305176,0.0866943,
1084,0.0836182,0.0874084,
1086,-0.0994873,0.0873901,
1088,0.0311279,0.0865906,
1090,0.0115967,0.0864685,
1092,0.122681,0.0867554,
1094,-0.0256348,0.0867859,
1096,-0.105591,0.0868713,
1098,0.0396729,0.0868469,
1100,0.0592041,0.0857727,
1102,-0.0244141,0.0841736,
1104,0.259399,0.0864685,
1106,-0.31311,0.0886292,
1108,-0.0323486,0.0881775,
1110,0.112305,0.0881592,
1112,0.0262451,0.0881042,
1114,-0.128174,0.0887268,
1116,0.00183105,0.0881409,
1118,0.0128174,0.0873108,
1120,-0.128174,0.085968,
1122,-0.00976563,0.0841431,
1124,0.0811768,0.0843689,
1126,0.0714111,0.0843994,
1128,-0.0756836,0.0846252,
1130,0.125122,0.0850891,
1132,-0.0891113,0.0852844,
1134,0.0445557,0.0851624,
1136,0.142822,0.0859985,
1138,-0.151367,0.0868408,
1140,0.00366211,0.0854126,
1142,-0.0250244,0.0850342,
1144,0.00854492,0.0845032,
1146,0.123291,0.084552,
1148,0.00244141,0.084552,
1150,-0.0939941,0.0854248,
1152,0.15686,0.0865173,
1154,-0.178833,0.0879639,
1156,0.0512695,0.0870117,
1158,0.0140381,0.0869019,
1160,0.00549316,0.0835205,
1162,-0.0537109,0.0815857,
1164,-0.0646973,0.0817749,
1166,-0.107422,0.0822388,
1168,0.00793457,0.0816101,
1170,0.0396729,0.0813171,
1172,-0.0604248,0.0808533,
1174,-0.0427246,0.0806702,
1176,-0.00610352,0.0805725,
1178,-0.00793457,0.0805603,
1180,-0.00915527,0.0804688,
1182,0.00549316,0.0804565,
1184,0.00793457,0.0798401,
1186,0.148926,0.0802429,
1188,0.118408,0.0796204,
1190,-0.223999,0.0817688,
1192,0.088501,0.0820618,
1194,0.0610352,0.0817078,
1196,0.0012207,0.0799683,
1198,-0.0152588,0.0775208,
1200,-0.0402832,0.0772705,
1202,-0.0695801,0.07724,
1204,-0.00915527,0.076532,
1206,0.0177002,0.0764465,
1208,0.00976563,0.0744263,
1210,0.00854492,0.0739807,
1212,-0.0292969,0.0726746,
1214,-0.00366211,0.0717896,
1216,0.0231934,0.071814,
1218,0.0445557,0.0714722,
1220,0.0262451,0.0713013,
1222,0.00976563,0.0708618,
1224,-0.0726318,0.0713074,
1226,0.0610352,0.0708374,
1228,0.0146484,0.0708008,
1230,-0.012207,0.0697144,
1232,-0.0402832,0.0691895,
1234,-0.0341797,0.068512,
1236,-0.0219727,0.0679749,
1238,-0.0219727,0.0681641,
1240,-0.00183105,0.0675415,
1242,0.107422,0.0682861,
1244,0.292358,0.0703491,
1246,-0.452881,0.0743713,
1248,0.164795,0.0757996,
1250,0.0671387,0.0749939,
1252,-0.0439453,0.0752319,
1254,-0.0408936,0.0746399,
1256,-0.0518799,0.0748718,
1258,-0.0665283,0.0735291,
1260,-0.0335693,0.0726196,
1262,0.00610352,0.07146,
1264,-0.032959,0.0704163,
1266,-0.00732422,0.0663269,
1268,0.0396729,0.0653992,
1270,-0.0299072,0.0650208,
1272,-0.0292969,0.064502,
1274,0.0146484,0.0637756,
1276,0.00610352,0.0628174,
1278,-0.0177002,0.0628479,
1280,0.00488281,0.0625549,
1282,0.0158691,0.0624084,
1284,0.00610352,0.0616333,
1286,-0.00183105,0.0606567,
1288,-0.00854492,0.0604309,
1290,0.0390625,0.0607056,
1292,0.00366211,0.0595154,
1294,-0.00610352,0.0593201,
1296,-0.0476074,0.0587402,
1298,0.0402832,0.0587463,
1300,-0.0146484,0.0583008,
1302,-0.0231934,0.0582886,
1304,-0.00610352,0.0557556,
1306,-0.0164795,0.0527893,
1308,0.0439453,0.0529053,
1310,-0.119629,0.0529785,
1312,-0.0323486,0.0530396,
1314,-0.0152588,0.0519104,
1316,0.0360107,0.0522522,
1318,-0.0756836,0.0528809,
1320,-0.0701904,0.052301,
1322,0.0152588,0.052356,
1324,-0.0592041,0.0521362,
1326,-0.0476074,0.0518982,
1328,-0.0250244,0.0513916,
1330,-0.0170898,0.0503113,
1332,-0.0531006,0.0499512,
1334,-0.0323486,0.0498291,
1336,-0.0598145,0.048999,
1338,0.00976563,0.047583,
1340,-0.0396729,0.0479431,
1342,-0.108643,0.0487793,
1344,0.0732422,0.0494263,
1346,0.03479,0.0485413,
1348,-0.130615,0.049823,
1350,-0.0366211,0.0492493,
1352,0.0891113,0.0485718,
1354,-0.0140381,0.0469238,
1356,-0.0891113,0.0473022,
1358,-0.0384521,0.0475464,
1360,0.00976563,0.0475891,
1362,0.0512695,0.0475647,
1364,-0.0933838,0.0478516,
1366,-0.065918,0.0474365,
1368,0.0738525,0.0480957,
1370,0.0665283,0.0483643,
1372,-0.123291,0.0489929,
1374,-0.0744629,0.0493103,
1376,0.0427246,0.0496765,
1378,0.108643,0.0506836,
1380,-0.0952148,0.0515442,
1382,-0.0628662,0.0521179,
1384,-0.0286865,0.0523254,
1386,0.0262451,0.0510986,
1388,0.012207,0.0500366,
1390,-0.00183105,0.0478149,
1392,-0.0756836,0.0476868,
1394,-0.100708,0.0480835,
1396,0.123291,0.0493042,
1398,-0.0860596,0.0500122,
1400,-0.0579834,0.0501892,
1402,0.00915527,0.049585,
1404,0.0708008,0.0502014,
1406,-0.0146484,0.0501709,
1408,0.0183105,0.0502563,
1410,-0.065918,0.0508301,
1412,0.0524902,0.051062,
1414,0.0915527,0.0519409,
1416,-0.0634766,0.0523438,
1418,-0.0238037,0.0521362,
1420,0.0268555,0.0521423,
1422,-0.00244141,0.0520691,
1424,-0.00793457,0.0514221,
1426,0.0585938,0.0513977,
1428,0.0231934,0.0514832,
1430,-0.0238037,0.0515991,
1432,-0.0177002,0.0513733,
1434,-0.0262451,0.0512939,
1436,0.0994873,0.0520691,
1438,-0.00671387,0.0519165,
1440,0.0012207,0.0519104,
1442,-0.00244141,0.0508606,
1444,0.0421143,0.0483582,
1446,-0.0494385,0.0443237,
1448,-0.126953,0.0439453,
1450,0.12146,0.0444885,
1452,0.0958252,0.0450073,
1454,-0.115356,0.045752,
1456,-0.0604248,0.0458374,
1458,-0.010376,0.0452759,
1460,0.0390625,0.0453308,
1462,0.0494385,0.0457642,
1464,-0.057373,0.0460083,
1466,0.0421143,0.0463562,
1468,-0.00976563,0.0460571,
1470,-0.00854492,0.0458435,
1472,0.000610352,0.0455566,
1474,-0.00427246,0.0454529,
1476,0.0292969,0.0456848,
1478,-0.0531006,0.0460388,
1480,0.0695801,0.0466858,
1482,-0.010376,0.0466309,
1484,0.00427246,0.0466125,
1486,0.0341797,0.046936,
1488,0.00488281,0.0468994,
1490,0.0140381,0.0466492,
1492,-0.0115967,0.0467285,
1494,-0.00366211,0.0467041,
1496,0.0543213,0.0467712,
1498,-0.03479,0.0467163,
1500,-0.120239,0.0477722,
1502,0.088501,0.0484253,
1504,-0.0238037,0.0486023,
1506,-0.0152588,0.0485901,
1508,-0.0262451,0.0484131,
1510,-0.0128174,0.047345,
1512,0.078125,0.0478027,
1514,-0.0201416,0.0478516,
1516,0.0268555,0.04776,
1518,-0.0604248,0.0476074,
1520,0.0268555,0.0471741,
1522,0.0354004,0.0473755,
1524,-0.057373,0.0473572,
1526,0.0421143,0.0473022,
1528,0.0323486,0.0473755,
1530,-0.0567627,0.0477722,
1532,0.0463867,0.0477051,
1534,-0.0408936,0.0477905,
1536,0.0366211,0.0475586,
1538,-0.0360107,0.047821,
1540,-0.000610352,0.0474304,
1542,0.0366211,0.0467102,
1544,0.0012207,0.04599,
1546,-0.00488281,0.0456909,
1548,0.00549316,0.0444397,
1550,0.012207,0.0441956,
1552,-0.00610352,0.0433655,
1554,0.00793457,0.0433044,
1556,-0.109863,0.043512,
1558,-0.127563,0.0444031,
1560,0.162354,0.045929,
1562,0.00488281,0.0454651,
1564,-0.109863,0.0456299,
1566,-0.00732422,0.0450439,
1568,0.0506592,0.044812,
1570,-0.00549316,0.0442017,
1572,-0.0415039,0.0433838,
1574,0.100098,0.0436401,
1576,-0.00732422,0.0432861,
1578,-0.0262451,0.0424622,
1580,-0.0238037,0.041748,
1582,0.0164795,0.0412842,
1584,0.0250244,0.0412476,
1586,0.0219727,0.0412048,
1588,-0.0109863,0.0411926,
1590,-0.00854492,0.0412598,
1592,-0.0231934,0.0407349,
1594,0.00793457,0.0398071,
1596,0.00854492,0.0386597,
1598,-0.0439453,0.0382385,
1600,0.0262451,0.0379211,
1602,-0.00488281,0.0378784,
1604,0.0469971,0.0376404,
1606,-0.00488281,0.0375427,
1608,-0.0537109,0.0378967,
1610,-0.103149,0.038269,
1612,0.0982666,0.0387268,
1614,0,0.0378113,
1616,-0.0219727,0.0373962,
1618,-0.0244141,0.0374023,
1620,0.0152588,0.0372864,
1622,0.0415039,0.037677,
1624,0.0164795,0.0377625,
1626,0.00183105,0.0371948,
1628,0.00915527,0.0370544,
1630,0.00915527,0.036908,
1632,0.0408936,0.0371399,
1634,0.0183105,0.0370605,
1636,0,0.0360657,
1638,-0.0238037,0.0362366,
1640,-0.0189209,0.0364136,
1642,0.0305176,0.0366943,
1644,-0.0115967,0.0363892,
1646,-0.010376,0.0359985,
1648,-0.0128174,0.0348572,
1650,-0.0488281,0.0341309,
1652,0.0384521,0.0335571,
1654,-0.000610352,0.0324097,
1656,0.0622559,0.032428,
1658,0.0109863,0.0324341,
1660,0.0567627,0.0326111,
1662,0.0561523,0.0326782,
1664,0.120239,0.0333069,
1666,-0.0195313,0.0330811,
1668,-0.0152588,0.033136,
1670,-0.00549316,0.0331055,
1672,0.000610352,0.0331055,
1674,0.0311279,0.033374,
1676,0.0195313,0.0332764,
1678,-0.0219727,0.0329651,
1680,-0.12207,0.03349,
1682,0.0195313,0.0335815,
1684,0.112915,0.034668,
1686,0.00488281,0.034375,
1688,-0.032959,0.0346558,
1690,-0.0488281,0.0350037,
1692,0.0628662,0.0355164,
1694,0.0640869,0.0361206,
1696,0.0286865,0.0358643,
1698,-0.00549316,0.0355713,
1700,0.0756836,0.0351257,
1702,-0.0280762,0.0345215,
1704,-0.192261,0.0362061,
1706,0,0.0360535,
1708,-0.0402832,0.0361938,
1710,-0.133667,0.0374023,
1712,-0.216064,0.0387817,
1714,-0.020752,0.0387878,
1716,-0.100098,0.0395203,
1718,0.0384521,0.0393005,
1720,-0.10437,0.0400757,
1722,0.0231934,0.0399536,
1724,0.195923,0.0413391,
1726,-0.0518799,0.0414368,
1728,0.0128174,0.0412415,
1730,-0.119629,0.0418701,
1732,0.00244141,0.0414307,
1734,-0.0280762,0.0413025,
1736,-0.153198,0.0424683,
1738,-0.17395,0.0438477,
1740,-0.0549316,0.0443909,
1742,-0.0811768,0.0448364,
1744,0.0238037,0.0450623,
1746,-0.155029,0.0465637,
1748,-0.108643,0.0475952,
1750,0.0579834,0.048053,
1752,0.0476074,0.048468,
1754,0.00183105,0.048407,
1756,0.00976563,0.047406,
1758,-0.0189209,0.0463196,
1760,-0.0964355,0.0456604,
1762,0.111694,0.0467285,
1764,-0.0280762,0.0459106,
1766,0.150757,0.047345,
1768,-0.123291,0.0480713,
1770,-0.0134277,0.0481506,
1772,0.123901,0.0489746,
1774,-0.0366211,0.0483398,
1776,-0.193481,0.0502014,
1778,0.00183105,0.0499573,
1780,0.0299072,0.0500183,
1782,-0.00244141,0.0498779,
1784,-0.187378,0.0515015,
1786,0.0878906,0.0521606,
1788,0.159302,0.0536438,
1790,-0.278931,0.0563477,
1792,0.128784,0.0574036,
1794,0.233765,0.0596619,
1796,-0.12085,0.0607849,
1798,0.10498,0.0613953,
1800,-0.0195313,0.0613281,
1802,0.107422,0.0623535,
1804,0.00915527,0.0619751,
1806,0.0201416,0.0621277,
1808,-0.0427246,0.0620178,
1810,-0.180664,0.062793,
1812,0.128784,0.0630981,
1814,-0.0439453,0.0635376,
1816,-0.180664,0.0651245,
1818,-0.0512695,0.0653931,
1820,0.0531006,0.0657715,
1822,-0.171509,0.0670715,
1824,0.0140381,0.0670471,
1826,0.10376,0.0680664,
1828,-0.0280762,0.0682556,
1830,0.189209,0.0700562,
1832,-0.0927734,0.070575,
1834,-0.067749,0.0710693,
1836,0.10376,0.0721069,
1838,0.12085,0.0730774,
1840,-0.218506,0.0750732,
1842,0.325928,0.0780273,
1844,-0.0695801,0.0786072,
1846,-0.270996,0.0812134,
1848,0.0732422,0.0818176,
1850,0.0842285,0.0821716,
1852,-0.0250244,0.0820374,
1854,-0.130615,0.0833374,
1856,0.136719,0.084082,
1858,-0.0616455,0.0845886,
1860,0.0463867,0.0844849,
1862,0.0634766,0.0845581,
1864,-0.0756836,0.0841125,
1866,0.122681,0.085144,
1868,-0.147705,0.0864685,
1870,-0.00549316,0.0864685,
1872,-0.078125,0.0872437,
1874,-0.0982666,0.087915,
1876,0.0506592,0.0882263,
1878,-0.0128174,0.0881348,
1880,-0.0750732,0.0876648,
1882,0.0756836,0.0882263,
1884,0.0701904,0.0877991,
1886,-0.0671387,0.0884216,
1888,0.00610352,0.0881531,
1890,-0.0158691,0.0878235,
1892,0.0732422,0.0879272,
1894,-0.0970459,0.0882568,
1896,0.123291,0.0892029,
1898,-0.125732,0.0904053,
1900,0.0720215,0.0903687,
1902,0.187988,0.0919678,
1904,-0.111694,0.0911621,
1906,0.112305,0.0922852,
1908,-0.0799561,0.0926819,
1910,0.111084,0.0924561,
1912,-0.143433,0.0917297,
1914,-0.000610352,0.0915283,
1916,0.0738525,0.0912659,
1918,-0.137329,0.0922546,
1920,-0.012207,0.091333,
1922,0.0671387,0.0917725,
1924,0.0775146,0.0905884,
1926,-0.124512,0.0913147,
1928,0.250854,0.0936951,
1930,0.0170898,0.0926697,
1932,-0.152588,0.0941711,
1934,0.0549316,0.0944397,
1936,0.0531006,0.0934387,
1938,0.00244141,0.0917236,
1940,-0.0823975,0.0919983,
1942,0.10437,0.0922302,
1944,-0.0708008,0.0927002,
1946,-0.134277,0.0924927,
1948,0.0946045,0.0923523,
1950,0.0366211,0.0921387,
1952,0.107422,0.0927368,
1954,-0.205078,0.0947693,
1956,-0.00549316,0.0947266,
1958,-0.045166,0.094989,
1960,0.0109863,0.0941345,
1962,0.0915527,0.0939331,
1964,-0.155029,0.0952026,
1966,-0.00183105,0.0937134,
1968,0.0524902,0.0930054,
1970,-0.0115967,0.0929871,
1972,0.142822,0.0931763,
1974,-0.0793457,0.0936035,
1976,-0.0439453,0.0921082,
1978,0.114136,0.0932312,
1980,-0.0488281,0.0934204,
1982,0.115967,0.0945557,
1984,-0.133667,0.0940186,
1986,0.0274658,0.0934143,
1988,0.0756836,0.0925781,
1990,-0.133667,0.0911255,
1992,0.101929,0.0908569,
1994,-0.032959,0.0888489,
1996,0.00793457,0.0877197,
1998,-0.00305176,0.0867004,
2000,0.000610352,0.0865112,
2002,0.00488281,0.0854858,
2004,-0.00915527,0.0854858,
2006,0.0238037,0.0855225,
2008,0.0744629,0.0858398,
2010,-0.0964355,0.0849976,
2012,-0.020752,0.0839172,
2014,0.0335693,0.0838135,
2016,0.010376,0.0821106,
2018,-0.0164795,0.0817627,
2020,-0.0146484,0.0813782,
2022,-0.0201416,0.0798645,
2024,0.0189209,0.0799133,
2026,0.0372314,0.079248,
2028,-0.0256348,0.0792236,
2030,0.189819,0.0792297,
2032,-0.0427246,0.0787292,
2034,-0.105591,0.0791077,
2036,0.10376,0.0791077,
2038,-0.0323486,0.0782227,
2040,0.00976563,0.0761353,
2042,-0.043335,0.0733093,
2044,-0.0256348,0.0728699,
2046,0.0488281,0.0706482,
2048,-0.0598145,0.0705139,
2050,0.0561523,0.0702332,
2052,0.126953,0.0712524,
2054,0.0476074,0.0704224,
2056,-0.192261,0.0709778,
2058,0.0689697,0.071051,
2060,0.00793457,0.0706665,
2062,0.043335,0.0704651,
2064,-0.206909,0.0717773,
2066,-0.045166,0.0710022,
2068,0.0549316,0.0700745,
2070,-0.0750732,0.0707703,
2072,-0.0231934,0.0702209,
2074,0.0134277,0.0693726,
2076,0.057373,0.0694397,
2078,-0.0469971,0.0697815,
2080,-0.00732422,0.069104,
2082,0.0561523,0.0689087,
2084,0.0134277,0.0683411,
2086,-0.00915527,0.0677612,
2088,-0.000610352,0.0677063,
2090,0.0872803,0.0684204,
2092,-0.101318,0.0687012,
2094,0.0305176,0.0680359,
2096,-0.0109863,0.0669128,
2098,0.0665283,0.0663208,
2100,0.275269,0.0683533,
2102,-0.274658,0.06922,
2104,-0.0189209,0.0682922,
2106,0.134277,0.068512,
2108,-0.0384521,0.0680969,
2110,-0.0567627,0.0675537,
2112,-0.0622559,0.0667419,
2114,-0.0872803,0.0676086,
2116,-0.078125,0.0676514,
2118,-0.0457764,0.0667358,
2120,0.0299072,0.0669128,
2122,-0.00610352,0.0663025,
2124,-0.0177002,0.0657043,
2126,0.117188,0.0656311,
2128,-0.0531006,0.0636536,
2130,0.0549316,0.064032,
2132,0.032959,0.0628357,
2134,-0.0244141,0.0625305,
2136,-0.0231934,0.0622314,
2138,0.065918,0.0628662,
2140,-0.0341797,0.062384,
2142,-0.0164795,0.0615051,
2144,0.0488281,0.0612854,
2146,0.00854492,0.0600281,
2148,-0.0463867,0.0595459,
2150,0.0268555,0.0594482,
2152,0.0408936,0.058783,
2154,-0.0274658,0.0570068,
2156,-0.0494385,0.0574463,
2158,0.0372314,0.0573669,
2160,-0.00793457,0.0573364,
2162,-0.0378418,0.0567993,
2164,0.0128174,0.0553772,
2166,0.0323486,0.0556824,
2168,0.0463867,0.0556213,
2170,-0.043335,0.0559387,
2172,-0.0317383,0.0548279,
2174,0.0164795,0.0541992,
2176,0.00183105,0.0537781,
2178,-0.00366211,0.0526733,
2180,-0.0476074,0.0526611,
2182,0.0158691,0.0516602,
2184,-0.0164795,0.0504883,
2186,-0.00793457,0.050293,
2188,0.00549316,0.0495911,
2190,-0.0183105,0.0484375,
2192,-0.00671387,0.0474854,
2194,-0.0360107,0.0475159,
2196,0.0408936,0.0478455,
2198,-0.0463867,0.0482788,
2200,-0.0109863,0.0483826,
2202,0.0311279,0.048645,
2204,-0.0268555,0.048822,
2206,0.000610352,0.0485901,
2208,-0.00244141,0.0478699,
2210,-0.00244141,0.0469299,
2212,-0.0238037,0.0469604,
2214,-0.0482178,0.0471069,
2216,-0.0476074,0.0474792,
2218,0.0439453,0.0477539,
2220,-0.0421143,0.0480286,
2222,-0.0262451,0.0480896,
2224,-0.0140381,0.0480408,
2226,0.0244141,0.0479126,
2228,0.00305176,0.0476868,
2230,0.00915527,0.0458801,
2232,0.0299072,0.045752,
2234,-0.0109863,0.0448059,
2236,-0.00793457,0.0438477,
2238,-0.00732422,0.0435974,
2240,-0.012207,0.0436218,
2242,0.00366211,0.0432251,
2244,-0.0140381,0.0431091,
2246,0.0213623,0.0428345,
2248,-0.0158691,0.042395,
2250,-0.043335,0.0422668,
2252,0.0280762,0.0412781,
2254,0.0115967,0.040918,
2256,-0.0244141,0.0392395,
2258,-0.00610352,0.0386108,
2260,-0.00976563,0.0386292,
2262,0.032959,0.0385254,
2264,-0.0830078,0.0372864,
2266,0.020752,0.0370422,
2268,0.0463867,0.0369568,
2270,-0.0152588,0.0363586,
2272,-0.0128174,0.0362549,
2274,-0.00732422,0.0361938,
2276,0.0408936,0.0360291,
2278,0.0134277,0.0356934,
2280,-0.0158691,0.0357788,
2282,0.00854492,0.0353027,
2284,0.00915527,0.03526,
2286,0.0012207,0.0351807,
2288,0.0366211,0.0355408,
2290,-0.0238037,0.034906,
2292,-0.020752,0.0341003,
2294,0.0012207,0.0338074,
2296,0.0872803,0.0345703,
2298,-0.045166,0.0343567,
2300,-0.0262451,0.0318665,
2302,0.0231934,0.0293518,
2304,0.0152588,0.0293152,
2306,0.00244141,0.0279968,
2308,-0.0134277,0.0277466,
2310,0.0012207,0.0271912,
2312,-0.00732422,0.0266418,
2314,-0.00732422,0.0258423,
2316,0.00183105,0.0250793,
2318,-0.00854492,0.024707,
2320,0.0262451,0.0246704,
2322,0.00915527,0.0247009,
2324,0.00732422,0.0245972,
2326,0.00610352,0.0234863,
2328,0.0170898,0.0231262,
2330,0.00488281,0.0226257,
2332,0.0158691,0.0224548,
2334,-0.00671387,0.0222778,
2336,-0.00793457,0.0221252,
2338,-0.00854492,0.0215515,
2340,0.0335693,0.0215454,
2342,-0.0115967,0.0214966,
2344,0.0012207,0.0210205,
2346,0.0115967,0.021051,
2348,0.0341797,0.020929,
2350,0.0280762,0.0209412,
2352,0.0128174,0.0206604,
2354,-0.0244141,0.0206299,
2356,-0.032959,0.0204651,
2358,0.131836,0.0214111,
2360,-0.0250244,0.021582,
2362,-0.0354004,0.0215576,
2364,-0.00244141,0.0214539,
2366,0.0286865,0.0214172,
2368,-0.0115967,0.0210693,
2370,-0.00305176,0.0206665,
2372,-0.0128174,0.0204773,
2374,-0.0195313,0.0205078,
2376,-0.00854492,0.020575,
2378,0.00183105,0.0205566,
2380,-0.00305176,0.0201111,
2382,0.00671387,0.0200195,
2384,-0.0152588,0.0200073,
2386,0.0134277,0.0200623,
2388,0.00549316,0.0200623,
2390,0.00488281,0.019928,
2392,0.00305176,0.0198914,
2394,0.00366211,0.0195679,
2396,-0.00427246,0.0192017,
2398,-0.00183105,0.0187561,
2400,0.00793457,0.0187256,
2402,0.00854492,0.0184998,
2404,0.00244141,0.0182556,
2406,0,0.0182495,
2408,-0.0152588,0.0183777,
2410,0.00183105,0.0183716,
2412,-0.00183105,0.0181519,
2414,0.00305176,0.0177002,
2416,0.00915527,0.0173157,
2418,-0.0158691,0.0170349,
2420,0.00610352,0.0166748,
2422,0.000610352,0.0164185,
2424,0.010376,0.0163818,
2426,0.0152588,0.0162903,
2428,0.0396729,0.0166565,
2430,-0.012207,0.016687,
2432,0.0170898,0.0165588,
2434,-0.0201416,0.0166504,
2436,0.00793457,0.0166504,
2438,0.00976563,0.0166748,
2440,-0.0280762,0.0168335,
2442,-0.0158691,0.0169556,
2444,-0.0274658,0.0170898,
2446,-0.0128174,0.0170044,
2448,0.0164795,0.0170105,
2450,-0.0201416,0.0167786,
2452,-0.0280762,0.0167786,
2454,-0.00610352,0.0167236,
2456,0.0415039,0.0168945,
2458,0.0262451,0.0170959,
2460,-0.0189209,0.0171875,
2462,-0.0396729,0.0172546,
2464,0.0323486,0.016748,
2466,0.0140381,0.0166809,
2468,0.00549316,0.016272,
2470,0.0146484,0.0162659,
2472,-0.0158691,0.0162964,
2474,0.020752,0.0164307,
2476,-0.00610352,0.0160828,
2478,0.043335,0.0163818,
2480,-0.00427246,0.0162659,
2482,0.00488281,0.0162292,
2484,-0.0378418,0.0165161,
2486,-0.00610352,0.0165649,
2488,-0.00732422,0.016272,
2490,-0.0250244,0.0162842,
2492,-0.0238037,0.0163147,
2494,-0.0305176,0.0166077,
2496,-0.00976563,0.0158325,
2498,-0.00549316,0.0154358,
2500,-0.00854492,0.0152588,
2502,0.00549316,0.0150818,
2504,0.00793457,0.0150085,
2506,0.00915527,0.0150757,
2508,-0.00183105,0.0149597,
2510,-0.00549316,0.0150024,
2512,0.0140381,0.0150696,
2514,0.0134277,0.0151306,
2516,0.0177002,0.0152893,
2518,0.00366211,0.0152405,
2520,-0.00488281,0.0150269,
2522,0.0238037,0.0151733,
2524,0.012207,0.0152222,
2526,-0.00305176,0.0151917,
2528,-0.00793457,0.0151001,
2530,0.00549316,0.0151062,
2532,0.00305176,0.014978,
2534,-0.00366211,0.0149475,
2536,-0.0140381,0.0150085,
2538,0.00732422,0.0149963,
2540,-0.00854492,0.0147461,
2542,0.00183105,0.0146484,
2544,-0.00305176,0.0146667,
2546,-0.0128174,0.014679,
2548,-0.00915527,0.0144287,
2550,0.00305176,0.0141785,
2552,0.0012207,0.0140625,
2554,0.000610352,0.0138245,
2556,0.00366211,0.0135315,
2558,-0.00244141,0.0122375,
2560,0.00183105,0.0120056,
2562,0.00244141,0.011676,
2564,-0.00488281,0.0117004,
2566,0.00671387,0.0114807,
2568,0.00244141,0.0113892,
2570,-0.0012207,0.0113708,
2572,0.00488281,0.0112915,
2574,-0.012207,0.0112183,
2576,0.0238037,0.0113708,
2578,0.0170898,0.0115234,
2580,-0.010376,0.0115967,
2582,0.000610352,0.0115356,
2584,-0.0183105,0.0115662,
2586,0.0195313,0.0116272,
2588,-0.00305176,0.0116028,
2590,-0.00915527,0.0116455,
2592,0.00915527,0.0117065,
2594,-0.0109863,0.0117798,
2596,-0.00427246,0.0117798,
2598,0.00732422,0.0118347,
2600,-0.012207,0.0118774,
2602,0.00793457,0.0118713,
2604,0.0238037,0.012085,
2606,-0.0152588,0.0122375,
2608,0.010376,0.0121887,
2610,0.010376,0.0122742,
2612,-0.00671387,0.012323,
2614,-0.0012207,0.0123047,
2616,0.0152588,0.0123657,
2618,-0.00854492,0.0122925,
2620,0.00244141,0.0122559,
2622,0.00305176,0.0122803,
2624,-0.00793457,0.0122559,
2626,0.00183105,0.0121216,
2628,0.00305176,0.0117554,
2630,-0.00305176,0.0116638,
2632,0.00732422,0.0115662,
2634,0.00244141,0.0113892,
2636,0.00305176,0.0113403,
2638,-0.00305176,0.0112732,
2640,0.00305176,0.0110229,
2642,0.00793457,0.0109436,
2644,-0.000610352,0.010675,
2646,0.00732422,0.0106201,
2648,0.00427246,0.010498,
2650,-0.0128174,0.0104248,
2652,0.000610352,0.0101501,
2654,-0.00671387,0.0101563,
2656,0,0.00974121,
2658,-0.0189209,0.00966797,
2660,-0.00549316,0.00953369,
2662,0.0262451,0.00939941,
2664,-0.0134277,0.00921021,
2666,0,0.00906982,
2668,0.000610352,0.009021,
2670,0.000610352,0.00888062,
2672,0.00427246,0.00876465,
2674,-0.00549316,0.00861206,
2676,0.00732422,0.00862427,
2678,-0.00488281,0.00823975,
2680,0.0012207,0.00820923,
2682,0.00427246,0.00820313,
2684,-0.0164795,0.0079895,
2686,0.00671387,0.00799561,
2688,0.00366211,0.00795898,
2690,-0.000610352,0.00771484,
2692,0.00305176,0.00750732,
2694,-0.020752,0.00740967,
2696,0.00549316,0.00736694,
2698,0.00366211,0.00734863,
2700,-0.00549316,0.00731812,
2702,-0.00305176,0.0072937,
2704,-0.0012207,0.00722656,
2706,0.00366211,0.00717163,
2708,-0.00244141,0.00717773,
2710,-0.00549316,0.00717773,
2712,0.00549316,0.00709229,
2714,-0.00427246,0.00700073,
2716,0.0012207,0.00683594,
2718,-0.0115967,0.00691528,
2720,0.00549316,0.00692139,
2722,0.000610352,0.00668945,
2724,-0.00488281,0.00661621,
2726,-0.000610352,0.0065918,
2728,-0.00183105,0.00653076,
2730,-0.000610352,0.00648193,
2732,0.012207,0.00657349,
2734,-0.00366211,0.00657349,
2736,0.00549316,0.00648804,
2738,-0.00305176,0.00644531,
2740,0.00732422,0.00643311,
2742,0.0183105,0.0065979,
2744,-0.00488281,0.00661621,
2746,-0.020752,0.00669556,
2748,0.00244141,0.00662842,
2750,0.0317383,0.00691528,
2752,-0.0146484,0.00704956,
2754,-0.00244141,0.00706787,
2756,0,0.00703125,
2758,0.00915527,0.00709839,
2760,-0.00671387,0.00714722,
2762,-0.0146484,0.00726929,
2764,0.020752,0.00742798,
2766,-0.00305176,0.00739136,
2768,-0.00854492,0.00745239,
2770,-0.00244141,0.0074646,
2772,0.00244141,0.00744019,
2774,0.00549316,0.00737305,
2776,0.0134277,0.00726929,
2778,0.00183105,0.0071167,
2780,-0.00183105,0.00703125,
2782,0.00183105,0.00704346,
2784,-0.00610352,0.00692139,
2786,0.00244141,0.00675049,
2788,0.0012207,0.00673218,
2790,-0.00366211,0.00667725,
2792,0.00732422,0.00665894,
2794,0.0012207,0.00656128,
2796,0.00183105,0.00653687,
2798,0.000610352,0.00646973,
2800,0.00549316,0.00640259,
2802,-0.0012207,0.00633545,
2804,0.00244141,0.00612183,
2806,0.00305176,0.00599976,
2808,-0.00366211,0.00593262,
2810,0.0012207,0.00584106,
2812,0.0012207,0.00578613,
2814,0.0012207,0.00578613,
2816,0.00366211,0.00567017,
2818,-0.00549316,0.00563965,
2820,0.000610352,0.00562134,
2822,0.00427246,0.00563354,
2824,-0.00366211,0.00559082,
2826,0.0012207,0.00558472,
2828,-0.0134277,0.00568848,
2830,0.00183105,0.00567627,
2832,0.00610352,0.00566406,
2834,-0.00244141,0.00566406,
2836,0.000610352,0.00563965,
2838,-0.0128174,0.0057373,
2840,-0.00244141,0.0057312,
2842,0.00915527,0.00574341,
2844,-0.00488281,0.00578613,
2846,0.00366211,0.00574951,
2848,-0.010376,0.00581055,
2850,-0.0012207,0.00569458,
2852,0,0.00568848,
2854,-0.000610352,0.00562744,
2856,0.00427246,0.00567017,
2858,0.00854492,0.00556641,
2860,-0.00183105,0.00552979,
2862,0.00793457,0.00534668,
2864,-0.00305176,0.00524292,
2866,0.00549316,0.00529785,
2868,0.012207,0.00541382,
2870,0.0134277,0.00554199,
2872,-0.00854492,0.00558472,
2874,0.00366211,0.00556641,
2876,0,0.00549316,
2878,-0.0128174,0.00557251,
2880,-0.00183105,0.00557861,
2882,-0.000610352,0.00554199,
2884,-0.0128174,0.00550537,
2886,-0.00305176,0.00546875,
2888,-0.00793457,0.00551147,
2890,-0.0109863,0.00561523,
2892,0.00427246,0.00562744,
2894,0.00305176,0.00545044,
2896,0,0.00539551,
2898,-0.00549316,0.00541382,
2900,0.0134277,0.00549316,
2902,0.00610352,0.00552368,
2904,-0.00732422,0.00558472,
2906,-0.00305176,0.00557861,
2908,0.0115967,0.00567017,
2910,-0.00183105,0.00563354,
2912,-0.00183105,0.00559692,
2914,-0.00244141,0.00557861,
2916,-0.00305176,0.00559692,
2918,-0.00610352,0.00554199,
2920,0.00244141,0.00551147,
2922,0,0.00550537,
2924,-0.00793457,0.00553589,
2926,-0.0012207,0.00554199,
2928,-0.000610352,0.00552979,
2930,-0.00671387,0.00559082,
2932,0.00915527,0.0055603,
2934,-0.00366211,0.0055603,
2936,-0.00427246,0.0055481,
2938,0.00915527,0.00560913,
2940,0.00671387,0.00560303,
2942,0.0146484,0.00556641,
2944,0.000610352,0.00552368,
2946,-0.00427246,0.00535889,
2948,0.00427246,0.0053772,
2950,-0.00427246,0.00510254,
2952,-0.00610352,0.00501709,
2954,-0.00854492,0.00507813,
2956,-0.0134277,0.0052124,
2958,-0.00976563,0.00521851,
2960,-0.00305176,0.00518188,
2962,0.00183105,0.00505371,
2964,-0.0183105,0.0050293,
2966,-0.00244141,0.00502319,
2968,0.00732422,0.00501099,
2970,0.000610352,0.00499268,
2972,0,0.00496826,
2974,-0.00244141,0.00493774,
2976,0.000610352,0.00480957,
2978,-0.00671387,0.0048584,
2980,0.00854492,0.00492554,
2982,-0.000610352,0.00491333,
2984,0.000610352,0.0048584,
2986,-0.012207,0.00495605,
2988,-0.000610352,0.00494995,
2990,-0.00366211,0.00494995,
2992,0.00244141,0.00490112,
2994,0.000610352,0.00489502,
2996,-0.0012207,0.00488892,
2998,0.00244141,0.00490723,
3000,0.00305176,0.00488281,
3002,0.00793457,0.00494995,
3004,0.00793457,0.00500488,
3006,-0.000610352,0.00498047,
3008,-0.00549316,0.00499878,
3010,-0.00488281,0.0050354,
3012,0.00610352,0.00508423,
3014,-0.00793457,0.00515137,
3016,-0.00183105,0.00513306,
3018,-0.00671387,0.00514526,
3020,-0.000610352,0.00514526,
3022,0.00244141,0.00512695,
3024,-0.00671387,0.00515747,
3026,0.00488281,0.00519409,
3028,-0.00488281,0.00510864,
3030,-0.0012207,0.00510254,
3032,0.0109863,0.00515137,
3034,-0.00244141,0.00515137,
3036,-0.00854492,0.00523071,
3038,-0.00244141,0.00512695,
3040,-0.00610352,0.00516357,
3042,0.0109863,0.00518188,
3044,-0.00244141,0.00515747,
3046,0.0012207,0.00513306,
3048,0,0.0050293,
3050,-0.000610352,0.00502319,
3052,0.00427246,0.00506592,
3054,0.00915527,0.00515137,
3056,0.00793457,0.00518799,
3058,-0.0115967,0.00521851,
3060,0.0012207,0.0052124,
3062,0.00305176,0.00516357,
3064,-0.00305176,0.00516357,
3066,-0.000610352,0.00511475,
3068,0.00549316,0.00504761,
3070,-0.00915527,0.00500488,
3072,0.00427246,0.00496216,
3074,-0.00366211,0.00496216,
3076,0.00488281,0.00501099,
3078,-0.000610352,0.00488892,
3080,0.000610352,0.00487671,
3082,-0.00427246,0.00491333,
3084,0.00366211,0.00482178,
3086,-0.0012207,0.00480347,
3088,-0.000610352,0.00473022,
3090,-0.00976563,0.00471802,
3092,0.0012207,0.0046875,
3094,-0.00305176,0.0046875,
3096,0.00854492,0.00477295,
3098,0.00183105,0.00473633,
3100,-0.00366211,0.00463867,
3102,-0.00183105,0.00459595,
3104,-0.00427246,0.00456543,
3106,0.000610352,0.00454102,
3108,0.0012207,0.00443726,
3110,-0.00610352,0.00447998,
3112,-0.000610352,0.00446777,
3114,-0.00915527,0.00453491,
3116,0.00183105,0.00452271,
3118,-0.00244141,0.00448608,
3120,0.00183105,0.00447998,
3122,0.00549316,0.00453491,
3124,0.0109863,0.00456543,
3126,0.00305176,0.00458374,
3128,-0.0177002,0.00475464,
3130,-0.00366211,0.00472412,
3132,0.00549316,0.0046875,
3134,-0.010376,0.00475464,
3136,-0.00793457,0.00479126,
3138,-0.0134277,0.00483398,
3140,-0.010376,0.00487061,
3142,-0.00549316,0.00477905,
3144,-0.00244141,0.00479736,
3146,-0.00366211,0.00479126,
3148,-0.00488281,0.00479736,
3150,-0.000610352,0.00476074,
3152,-0.00244141,0.00472412,
3154,-0.00610352,0.00469971,
3156,0.00549316,0.00462036,
3158,-0.00427246,0.00456543,
3160,0.0012207,0.00454712,
3162,0.010376,0.00463257,
3164,-0.00366211,0.00448608,
3166,0.00183105,0.00447998,
3168,0.00610352,0.00446777,
3170,0.0109863,0.00457153,
3172,0.00183105,0.00458984,
3174,-0.00305176,0.00459595,
3176,0.00854492,0.00467529,
3178,-0.0134277,0.00474243,
3180,0.000610352,0.00466309,
3182,0.00732422,0.00473022,
3184,-0.0115967,0.00484009,
3186,-0.0012207,0.00473022,
3188,-0.00854492,0.00480957,
3190,0,0.00477295,
3192,0.00671387,0.00481567,
3194,-0.00915527,0.00490112,
3196,0.00671387,0.00495605,
3198,0.00427246,0.00497437,
3200,-0.012207,0.00506592,
3202,0.000610352,0.00499268,
3204,-0.0012207,0.00492554,
3206,-0.00305176,0.00494995,
3208,-0.00732422,0.00496826,
3210,-0.00488281,0.00496826,
3212,0.0012207,0.00491943,
3214,0.00671387,0.00490723,
3216,0,0.00488892,
3218,-0.00183105,0.00484009,
3220,0.00915527,0.00492554,
3222,0.00732422,0.00497437,
3224,-0.00549316,0.00496216,
3226,0,0.00491333,
3228,0.00244141,0.00488892,
3230,-0.00854492,0.00496216,
3232,-0.000610352,0.0048584,
3234,-0.012207,0.00495605,
3236,0.0012207,0.00488281,
3238,0.00854492,0.00494385,
3240,-0.00427246,0.00492554,
3242,0.00549316,0.00487061,
3244,-0.00793457,0.00492554,
3246,0.00305176,0.00494385,
3248,0.0109863,0.00505371,
3250,-0.00244141,0.00507202,
3252,0,0.0050293,
3254,0,0.00493774,
3256,-0.00305176,0.00488892,
3258,-0.0115967,0.00488892,
3260,-0.00244141,0.00490112,
3262,0.00305176,0.00490112,
3264,-0.010376,0.00497437,
3266,0.00915527,0.00505981,
3268,-0.00610352,0.00506592,
3270,-0.00305176,0.00500488,
3272,0.00244141,0.00498657,
3274,0.000610352,0.00495605,
3276,0.00305176,0.00493774,
3278,-0.00488281,0.00498047,
3280,-0.00488281,0.00502319,
3282,0.00366211,0.00501709,
3284,-0.00488281,0.0050293,
3286,0.0012207,0.0050293,
3288,-0.00305176,0.00505371,
3290,0.00488281,0.00500488,
3292,0.00915527,0.00508423,
3294,-0.00244141,0.00507813,
3296,-0.00793457,0.00507202,
3298,0.00793457,0.00513306,
3300,-0.00183105,0.00511475,
3302,-0.00427246,0.00513916,
3304,-0.00671387,0.00516357,
3306,-0.00488281,0.0052063,
3308,-0.00305176,0.00522461,
3310,-0.00305176,0.00519409,
3312,-0.00427246,0.00523071,
3314,-0.00488281,0.00518799,
3316,0.00854492,0.00525513,
3318,-0.00183105,0.00524902,
3320,0.00244141,0.00525513,
3322,0.00793457,0.00527954,
3324,-0.0170898,0.00534058,
3326,0.00366211,0.00534668,
3328,-0.00427246,0.0052124,
3330,-0.00610352,0.00523682,
3332,-0.00488281,0.00523071,
3334,-0.0146484,0.00527344,
3336,-0.00549316,0.00524902,
3338,-0.00854492,0.0052002,
3340,0.00183105,0.00511475,
3342,0.00305176,0.00509033,
3344,-0.00976563,0.00516357,
3346,0.00183105,0.00514526,
3348,-0.00488281,0.00514526,
3350,0.00183105,0.00515747,
3352,-0.010376,0.00523682,
3354,-0.00427246,0.00521851,
3356,-0.00305176,0.00519409,
3358,-0.00732422,0.00522461,
3360,0.00244141,0.00523682,
3362,-0.0158691,0.00529175,
3364,-0.0115967,0.00537109,
3366,0.00183105,0.00537109,
3368,0.00305176,0.00534058,
3370,-0.00549316,0.00528564,
3372,-0.0134277,0.00540161,
3374,-0.00305176,0.00540161,
3376,-0.00244141,0.00534058,
3378,-0.00793457,0.00528564,
3380,-0.00244141,0.00530396,
3382,-0.00366211,0.00526733,
3384,-0.00976563,0.00524902,
3386,-0.00366211,0.00527344,
3388,0.000610352,0.00519409,
3390,-0.0134277,0.00532837,
3392,-0.00732422,0.00533447,
3394,0.00427246,0.00528564,
3396,-0.00671387,0.00528564,
3398,-0.00183105,0.00526123,
3400,-0.0109863,0.00524902,
3402,-0.012207,0.00536499,
3404,-0.00183105,0.00537109,
3406,-0.00244141,0.00536499,
3408,-0.0109863,0.00540161,
3410,-0.00915527,0.00544434,
3412,0.00183105,0.00545044,
3414,0.000610352,0.0053894,
3416,0.00244141,0.00541382,
3418,-0.00488281,0.00544434,
3420,0.000610352,0.00535889,
3422,0.00854492,0.00537109,
3424,-0.00915527,0.00540771,
3426,0.00366211,0.00544434,
3428,-0.00366211,0.00545654,
3430,-0.00732422,0.00544434,
3432,-0.0012207,0.00545044,
3434,-0.00366211,0.00536499,
3436,-0.00915527,0.00544434,
3438,-0.000610352,0.00536499,
3440,-0.00366211,0.00535889,
3442,0.00549316,0.00535889,
3444,-0.00305176,0.00531006,
3446,-0.000610352,0.00528564,
3448,0.0012207,0.00518799,
3450,-0.00488281,0.0052124,
3452,0.00854492,0.00529785,
3454,-0.00671387,0.00536499,
3456,-0.00366211,0.00537109,
3458,-0.00366211,0.00529175,
3460,-0.00244141,0.00529175,
3462,-0.00427246,0.00530396,
3464,0,0.0052002,
3466,-0.000610352,0.00511475,
3468,0.00427246,0.00509644,
3470,-0.00549316,0.00512085,
3472,0.00793457,0.00517578,
3474,0.00427246,0.0052124,
3476,-0.00183105,0.0052002,
3478,0.00976563,0.00524902,
3480,-0.0152588,0.00535278,
3482,-0.00671387,0.0053833,
3484,-0.00427246,0.0053772,
3486,-0.000610352,0.00537109,
3488,-0.00366211,0.0053772,
3490,-0.0164795,0.00549316,
3492,0.00183105,0.00541992,
3494,0.0012207,0.00540771,
3496,-0.00305176,0.00535889,
3498,0.00549316,0.00533447,
3500,-0.0012207,0.00532837,
3502,0.00488281,0.00533447,
3504,-0.00610352,0.00532837,
3506,-0.00244141,0.00530396,
3508,0.00305176,0.00530396,
3510,0.00183105,0.00529175,
3512,-0.0134277,0.0053833,
3514,-0.00366211,0.00537109,
3516,0.00488281,0.00533447,
3518,-0.00976563,0.00541382,
3520,0.00244141,0.00541382,
3522,0.000610352,0.00534058,
3524,-0.00549316,0.00522461,
3526,0.00366211,0.00522461,
3528,-0.00427246,0.00522461,
3530,-0.00244141,0.00518799,
3532,0.00488281,0.00518799,
3534,-0.00610352,0.00510254,
3536,-0.00732422,0.00512085,
3538,0.00610352,0.00509644,
3540,-0.010376,0.00518188,
3542,0.00854492,0.00523682,
3544,-0.0012207,0.00515137,
3546,-0.00488281,0.00518188,
3548,-0.00976563,0.00523071,
3550,-0.00549316,0.00526733,
3552,0.00610352,0.00522461,
3554,-0.000610352,0.00518799,
3556,-0.0164795,0.00532227,
3558,-0.00244141,0.00527344,
3560,-0.00488281,0.00529785,
3562,0.000610352,0.00514526,
3564,-0.00244141,0.00505371,
3566,-0.00366211,0.00507202,
3568,-0.010376,0.00514526,
3570,0.00488281,0.00513916,
3572,0.000610352,0.00501099,
3574,-0.00854492,0.00506592,
3576,0.0152588,0.00519409,
3578,-0.0134277,0.00524902,
3580,-0.0146484,0.00537109,
3582,-0.0012207,0.00534668,
3584,-0.00366211,0.00528564,
3586,-0.00366211,0.00528564,
3588,-0.0152588,0.00543213,
3590,-0.0140381,0.00543823,
3592,0.00244141,0.0053894,
3594,-0.00549316,0.00540161,
3596,-0.00793457,0.00541382,
3598,0.00366211,0.00543213,
3600,-0.00244141,0.00534668,
3602,0.00488281,0.00527344,
3604,-0.00305176,0.00528564,
3606,-0.0109863,0.00537109,
3608,0.00244141,0.00528564,
3610,-0.00305176,0.00522461,
3612,-0.00183105,0.00522461,
3614,-0.00915527,0.00531006,
3616,-0.00305176,0.00531616,
3618,-0.00915527,0.00535889,
3620,0.00488281,0.00540161,
3622,0.0012207,0.00532837,
3624,-0.00427246,0.00527954,
3626,0.00183105,0.00526123,
3628,0.0012207,0.00523682,
3630,0.00305176,0.00519409,
3632,0.00976563,0.00527954,
3634,0.000610352,0.00524902,
3636,0.0012207,0.00516968,
3638,-0.00427246,0.0052063,
3640,-0.00488281,0.00521851,
3642,0.00427246,0.0052063,
3644,-0.00366211,0.0052124,
3646,-0.00244141,0.00523071,
3648,-0.0012207,0.00523071,
3650,-0.00244141,0.0052063,
3652,0.00488281,0.00516968,
3654,-0.00183105,0.00512085,
3656,-0.0012207,0.00509644,
3658,0.00183105,0.00507813,
3660,-0.00305176,0.00508423,
3662,0.00610352,0.00510254,
3664,0.00671387,0.00516968,
3666,-0.010376,0.00526733,
3668,0.00183105,0.00524292,
3670,0.000610352,0.00519409,
3672,0,0.00511475,
3674,-0.00610352,0.00513306,
3676,0.00305176,0.00514526,
3678,-0.00793457,0.00512695,
3680,-0.010376,0.00507813,
3682,-0.0012207,0.00502319,
3684,-0.00366211,0.00501709,
3686,0.00244141,0.0050354,
3688,-0.0158691,0.00515747,
3690,0.0012207,0.00500488,
3692,0.00549316,0.0050415,
3694,-0.00549316,0.00508423,
3696,0.00549316,0.00510864,
3698,-0.00793457,0.00513306,
3700,-0.00366211,0.00515747,
3702,0.00305176,0.00513916,
3704,-0.00366211,0.00511475,
3706,-0.00305176,0.00512085,
3708,0.00244141,0.00511475,
3710,-0.0195313,0.00529175,
3712,0.00305176,0.00518799,
3714,-0.000610352,0.00515747,
3716,-0.00915527,0.0052002,
3718,-0.012207,0.00522461,
3720,0.00244141,0.00522461,
3722,-0.000610352,0.00522461,
3724,-0.0109863,0.00527954,
3726,-0.00366211,0.00527954,
3728,-0.00549316,0.00529175,
3730,0.00244141,0.00529175,
3732,0.00854492,0.00532837,
3734,-0.0012207,0.00527954,
3736,-0.00549316,0.00526123,
3738,-0.00427246,0.00524292,
3740,0.00732422,0.0052124,
3742,-0.00183105,0.00514526,
3744,-0.00549316,0.00518799,
3746,-0.00183105,0.00515747,
3748,0.00427246,0.00510254,
3750,-0.0115967,0.00516357,
3752,0.00488281,0.00515137,
3754,-0.00488281,0.00519409,
3756,-0.00854492,0.00511475,
3758,0.00427246,0.00513306,
3760,-0.00488281,0.00513306,
3762,-0.00671387,0.00519409,
3764,-0.00671387,0.00523682,
3766,0.00305176,0.00523071,
3768,-0.00366211,0.00516357,
3770,-0.00732422,0.00518799,
3772,-0.0012207,0.00519409,
3774,-0.00305176,0.00513916,
3776,-0.000610352,0.00499268,
3778,-0.00305176,0.00488892,
3780,-0.0012207,0.00475464,
3782,-0.000610352,0.00474854,
3784,-0.00610352,0.00477295,
3786,-0.00915527,0.00482788,
3788,0.00488281,0.00472412,
3790,-0.00305176,0.00461426,
3792,0.00305176,0.00462036,
3794,-0.0109863,0.00467529,
3796,-0.00549316,0.00465088,
3798,0.00732422,0.0046875,
3800,-0.0109863,0.00477295,
3802,-0.00244141,0.00474854,
3804,-0.00793457,0.00479736,
3806,-0.00366211,0.00472412,
3808,0.000610352,0.00470581,
3810,-0.00854492,0.00476074,
3812,-0.00610352,0.00480347,
3814,0.00366211,0.00474854,
3816,-0.00732422,0.00479126,
3818,-0.0012207,0.00471191,
3820,-0.0012207,0.00467529,
3822,0.0012207,0.00467529,
3824,-0.00671387,0.00469971,
3826,-0.00427246,0.00472412,
3828,-0.00793457,0.00479126,
3830,-0.000610352,0.00476685,
3832,0,0.00466919,
3834,-0.0164795,0.00482788,
3836,0.00549316,0.00487061,
3838,0.0012207,0.00484009,
3840,-0.0140381,0.00493164,
3842,0.0012207,0.00490112,
3844,-0.0115967,0.00498047,
3846,0.0012207,0.00496826,
3848,0.00183105,0.00497437,
3850,-0.0012207,0.00496216,
3852,-0.0140381,0.00505371,
3854,-0.00610352,0.00509644,
3856,0.00427246,0.00512695,
3858,0.00671387,0.00517578,
3860,0,0.00514526,
3862,-0.0244141,0.00532837,
3864,0,0.00526123,
3866,0.00793457,0.00523682,
3868,-0.00915527,0.00531006,
3870,-0.00854492,0.0053894,
3872,-0.00366211,0.00542603,
3874,-0.00549316,0.00541992,
3876,-0.0012207,0.00540161,
3878,-0.00427246,0.00536499,
3880,0.00183105,0.00527954,
3882,0.00305176,0.00529785,
3884,-0.00732422,0.00533447,
3886,0.00854492,0.00539551,
3888,0.00244141,0.00526123,
3890,-0.0158691,0.00540771,
3892,0.00793457,0.00543213,
3894,-0.00549316,0.00543213,
3896,0.00549316,0.00543213,
3898,0.00244141,0.0053772,
3900,-0.00488281,0.0053894,
3902,-0.00305176,0.0053894,
3904,-0.00610352,0.00541382,
3906,0.00244141,0.00540771,
3908,-0.00366211,0.00541992,
3910,-0.00915527,0.00531616,
3912,-0.00305176,0.00531616,
3914,-0.00549316,0.00536499,
3916,-0.00915527,0.00536499,
3918,-0.00427246,0.00528564,
3920,0.00549316,0.00531616,
3922,0.00488281,0.00535889,
3924,-0.00732422,0.00532227,
3926,0.00427246,0.00532837,
3928,-0.0158691,0.00543213,
3930,0.00610352,0.00546875,
3932,0.00488281,0.00543213,
3934,-0.0134277,0.0055542,
3936,-0.0012207,0.00551147,
3938,0.00488281,0.00551758,
3940,0,0.00544434,
3942,-0.0140381,0.00556641,
3944,0,0.00551147,
3946,0.00183105,0.00551147,
3948,-0.00488281,0.00551758,
3950,-0.0146484,0.0055481,
3952,-0.00793457,0.00557861,
3954,-0.00732422,0.00560303,
3956,-0.00488281,0.00556641,
3958,-0.00732422,0.00559692,
3960,-0.00183105,0.00556641,
3962,-0.00610352,0.0055603,
3964,0.0012207,0.00550537,
3966,-0.00305176,0.00550537,
3968,-0.00183105,0.00548706,
3970,-0.00427246,0.00545654,
3972,0.0012207,0.00545654,
3974,-0.00610352,0.00548706,
3976,-0.00488281,0.00552979,
3978,-0.00915527,0.00559082,
3980,-0.000610352,0.00558472,
3982,0.000610352,0.00558472,
3984,-0.00793457,0.00560303,
3986,0.00488281,0.0055603,
3988,-0.000610352,0.00551758,
3990,-0.00671387,0.0055542,
3992,-0.00549316,0.00557861,
3994,-0.00305176,0.00549927,
3996,0.00183105,0.00546265,
3998,-0.00366211,0.00542603,
4000,-0.010376,0.00541992,
4002,-0.00610352,0.00545654,
4004,-0.00976563,0.00547485,
4006,-0.0115967,0.0055542,
4008,0.00244141,0.00557251,
4010,-0.00488281,0.00553589,
4012,-0.0183105,0.00565796,
4014,0.00915527,0.00571289,
4016,-0.00183105,0.00565796,
4018,-0.00183105,0.00566406,
4020,0.00244141,0.00567627,
4022,0.0109863,0.00577393,
4024,0,0.00570679,
4026,0.00732422,0.0057373,
4028,0.000610352,0.00566406,
4030,-0.0128174,0.00578613,
4032,-0.00183105,0.00580444,
4034,0.000610352,0.00564575,
4036,0.00183105,0.00560913,
4038,-0.010376,0.00570068,
4040,-0.020752,0.00576782,
4042,0.00976563,0.00585327,
4044,-0.0012207,0.00574951,
4046,-0.000610352,0.00574341,
4048,0.000610352,0.0057312,
4050,-0.00915527,0.00581055,
4052,-0.0012207,0.00568237,
4054,-0.00488281,0.00567017,
4056,-0.00610352,0.00568848,
4058,0.00366211,0.00565796,
4060,-0.00488281,0.00570679,
4062,-0.00793457,0.00554199,
4064,-0.000610352,0.0055481,
4066,0.000610352,0.00547485,
4068,-0.00183105,0.00540161,
4070,0.0012207,0.00532837,
4072,0.00793457,0.00537109,
4074,-0.00793457,0.00539551,
4076,0.000610352,0.0053894,
4078,-0.00427246,0.0053894,
4080,-0.00366211,0.00540771,
4082,0.00915527,0.00546875,
4084,-0.000610352,0.00540161,
4086,-0.00366211,0.00535278,
4088,-0.00488281,0.0053772,
4090,-0.00793457,0.00529785,
4092,0.0140381,0.00535889,
4094,0.00488281,0.00535278,
4096,-0.00854492,0.0053833,
4098,-0.00366211,0.00539551,
4100,0,0.00534668,
4102,0.00183105,0.00533447,
4104,-0.00915527,0.00536499,
4106,-0.00305176,0.00537109,
4108,0.00244141,0.00535889,
4110,-0.00793457,0.00534668,
4112,-0.00427246,0.00535889,
4114,-0.00183105,0.00532227,
4116,0,0.00523071,
4118,-0.00549316,0.00524292,
4120,-0.00244141,0.0052124,
4122,0.00549316,0.00521851,
4124,-0.00244141,0.00516968,
4126,-0.0115967,0.00524292,
4128,0.000610352,0.00509033,
4130,0.00610352,0.00509033,
4132,0.00305176,0.00507202,
4134,-0.0128174,0.00506592,
4136,0.00183105,0.00507202,
4138,-0.00244141,0.00504761,
4140,0.0012207,0.00505981,
4142,-0.00305176,0.00494995,
4144,-0.00488281,0.00499878,
4146,-0.00488281,0.0050293,
4148,0.00244141,0.00500488,
4150,-0.010376,0.00496216,
4152,-0.00549316,0.00493774,
4154,-0.00366211,0.00490112,
4156,0.00244141,0.00487671,
4158,-0.00488281,0.00485229,
4160,0.0012207,0.00484619,
4162,0,0.00478516,
4164,-0.00549316,0.00482788,
4166,0.00671387,0.0048645,
4168,0.00427246,0.00488892,
4170,-0.00305176,0.00487671,
4172,0.0012207,0.00487671,
4174,-0.00366211,0.00485229,
4176,-0.000610352,0.00480957,
4178,-0.000610352,0.00472412,
4180,0.00488281,0.00476685,
4182,-0.00854492,0.00484619,
4184,-0.00854492,0.00485229,
4186,0.00427246,0.00484619,
4188,-0.000610352,0.00484619,
4190,-0.00854492,0.0048645,
4192,-0.0012207,0.00482178,
4194,-0.0012207,0.00480347,
4196,0.0012207,0.00479736,
4198,0.00671387,0.00482788,
4200,-0.0134277,0.0048584,
4202,0,0.00479736,
4204,0.00183105,0.00471802,
4206,-0.00610352,0.00466309,
4208,-0.00183105,0.00465698,
4210,-0.00488281,0.00465698,
4212,0.00671387,0.00454102,
4214,-0.00732422,0.00452271,
4216,-0.00305176,0.00453491,
4218,0.00366211,0.00455322,
4220,0.00427246,0.00457153,
4222,0.00305176,0.00449219,
4224,-0.00549316,0.00454712,
4226,0.0012207,0.00448608,
4228,-0.00488281,0.00452881,
4230,0.000610352,0.00440674,
4232,0.00305176,0.00441895,
4234,-0.00244141,0.00443726,
4236,0.00427246,0.00446167,
4238,0.00549316,0.00441284,
4240,-0.00244141,0.00422974,
4242,0.00366211,0.0041687,
4244,-0.0012207,0.0041687,
4246,0.00244141,0.00418701,
4248,0.00976563,0.00427856,
4250,-0.00610352,0.00424805,
4252,-0.00183105,0.00425415,
4254,0.00427246,0.00424805,
4256,-0.00244141,0.00421143,
4258,0.00488281,0.00422363,
4260,0.000610352,0.00418091,
4262,0.0012207,0.00411377,
4264,0.000610352,0.00411377,
4266,-0.000610352,0.00411377,
4268,0.00793457,0.0041748,
4270,0.0012207,0.0041748,
4272,-0.000610352,0.00410156,
4274,-0.00671387,0.00408936,
4276,-0.00183105,0.00410156,
4278,-0.00610352,0.00411987,
4280,-0.0109863,0.00419312,
4282,0.00915527,0.00419312,
4284,-0.0115967,0.00430298,
4286,-0.00427246,0.00430908,
4288,0,0.00426025,
4290,-0.00305176,0.00421143,
4292,0.00610352,0.00413208,
4294,-0.00305176,0.00411377,
4296,-0.00183105,0.00404663,
4298,0.0012207,0.00402222,
4300,-0.00915527,0.00411377,
4302,-0.00305176,0.00412598,
4304,-0.000610352,0.00404053,
4306,-0.00610352,0.00407104,
4308,0.00488281,0.00409546,
4310,-0.00366211,0.00405273,
4312,-0.00244141,0.00403442,
4314,0.00488281,0.00406494,
4316,-0.00366211,0.00410156,
4318,-0.0012207,0.00405884,
4320,0.00549316,0.00408936,
4322,0.000610352,0.00404053,
4324,0,0.00401611,
4326,0.000610352,0.00390625,
4328,-0.00610352,0.00396118,
4330,-0.00671387,0.00396729,
4332,0.00793457,0.00401611,
4334,-0.0012207,0.00390015,
4336,-0.0012207,0.00389404,
4338,0,0.00386963,
4340,-0.0213623,0.00407104,
4342,0.0158691,0.00419922,
4344,-0.00854492,0.00423584,
4346,-0.00427246,0.00422974,
4348,-0.000610352,0.00421143,
4350,-0.00793457,0.00418701,
4352,-0.00366211,0.0041687,
4354,0.0012207,0.00414429,
4356,0,0.00411987,
4358,0.00366211,0.00410767,
4360,-0.0134277,0.00422974,
4362,0.0012207,0.00424194,
4364,0.00488281,0.00423584,
4366,0.00366211,0.00420532,
4368,-0.0146484,0.00430908,
4370,-0.00366211,0.00431519,
4372,-0.00183105,0.00432129,
4374,-0.00366211,0.00432129,
4376,-0.00488281,0.00436401,
4378,-0.00488281,0.00440674,
4380,-0.00427246,0.00440063,
4382,0.00488281,0.00436401,
4384,-0.00366211,0.00431519,
4386,0.00183105,0.00429077,
4388,-0.00549316,0.0043396,
4390,0,0.00425415,
4392,0.00244141,0.00426636,
4394,-0.00793457,0.0043335,
4396,0.0012207,0.0043335,
4398,-0.00244141,0.00429077,
4400,-0.00427246,0.00419922,
4402,-0.00305176,0.00422974,
4404,0,0.00421143,
4406,-0.00671387,0.00421753,
4408,-0.00183105,0.00421753,
4410,-0.00366211,0.00420532,
4412,-0.00427246,0.00418091,
4414,-0.00488281,0.00415649,
4416,-0.00305176,0.00415649,
4418,-0.00610352,0.00418091,
4420,-0.00244141,0.0041626,
4422,0.000610352,0.00413818,
4424,-0.00305176,0.00411377,
4426,-0.00610352,0.0041626,
4428,-0.00366211,0.00415039,
4430,-0.00305176,0.0041748,
4432,0.00244141,0.0041687,
4434,-0.00366211,0.00418091,
4436,-0.00488281,0.00418701,
4438,0.00976563,0.00422974,
4440,-0.0152588,0.00435791,
4442,-0.0012207,0.0043335,
4444,0.000610352,0.00432739,
4446,-0.00366211,0.0043396,
4448,0.00305176,0.00427246,
4450,-0.0177002,0.00438843,
4452,-0.00244141,0.00439453,
4454,-0.00732422,0.00442505,
4456,-0.00305176,0.00443115,
4458,-0.00244141,0.00440674,
4460,-0.00183105,0.00441895,
4462,-0.00305176,0.00443726,
4464,-0.00976563,0.00452881,
4466,-0.00244141,0.00454712,
4468,-0.00610352,0.00452881,
4470,0.00427246,0.00455933,
4472,0.00366211,0.00458984,
4474,-0.00244141,0.00454712,
4476,-0.0140381,0.00466919,
4478,0.0128174,0.00473633,
4480,0.00915527,0.00471802,
4482,-0.0115967,0.00474243,
4484,-0.00549316,0.0046814,
4486,0.00427246,0.0046814,
4488,-0.00183105,0.00469971,
4490,-0.0109863,0.00477905,
4492,-0.0012207,0.00473022,
4494,-0.00549316,0.00475464,
4496,-0.00488281,0.00478516,
4498,0.00244141,0.00479736,
4500,-0.00793457,0.00478516,
4502,-0.00244141,0.00477905,
4504,0.00183105,0.00479126,
4506,-0.00366211,0.00476685,
4508,-0.00244141,0.00474243,
4510,0.010376,0.00480957,
4512,-0.00244141,0.00480957,
4514,-0.00671387,0.00482788,
4516,0.000610352,0.00479736,
4518,0.000610352,0.00479126,
4520,0.00183105,0.00475464,
4522,0.000610352,0.00475464,
4524,-0.012207,0.00487671,
4526,0.00610352,0.00493164,
4528,-0.010376,0.00497437,
4530,-0.00976563,0.00500488,
4532,-0.00305176,0.00495605,
4534,-0.00976563,0.0050415,
4536,-0.00549316,0.00508423,
4538,-0.00366211,0.00512085,
4540,-0.0158691,0.00506592,
4542,-0.000610352,0.00491333,
4544,-0.00793457,0.00490723,
4546,-0.00549316,0.00491943,
4548,0.00244141,0.00493774,
4550,-0.00671387,0.00492554,
4552,-0.00915527,0.00498047,
4554,-0.00427246,0.00501099,
4556,-0.00732422,0.00508423,
4558,0.000610352,0.00505371,
4560,-0.00732422,0.00499268,
4562,-0.00793457,0.00505981,
4564,0.00427246,0.00505371,
4566,-0.0012207,0.0050293,
4568,0.000610352,0.00488892,
4570,0.000610352,0.0048584,
4572,-0.0012207,0.00485229,
4574,0.000610352,0.00482178,
4576,-0.00854492,0.0048584,
4578,-0.00488281,0.0048584,
4580,-0.00976563,0.00491333,
4582,-0.0012207,0.00487671,
4584,-0.0140381,0.00498047,
4586,-0.00427246,0.00500488,
4588,-0.00366211,0.00498657,
4590,-0.00915527,0.00507813,
4592,0.000610352,0.00505981,
4594,-0.00793457,0.00505981,
4596,-0.00488281,0.00509644,
4598,-0.000610352,0.00507813,
4600,-0.0128174,0.00516357,
4602,-0.00244141,0.00515747,
4604,-0.00305176,0.00518799,
4606,-0.00549316,0.00517578,
4608,-0.00488281,0.0052063,
4610,-0.00427246,0.0052124,
4612,0.00366211,0.0052063,
4614,-0.00488281,0.0052063,
4616,-0.00427246,0.00521851,
4618,-0.00183105,0.00517578,
4620,-0.00366211,0.00518799,
4622,-0.00244141,0.0052063,
4624,-0.00610352,0.00523682,
4626,-0.00183105,0.00519409,
4628,-0.00244141,0.00518188,
4630,-0.0183105,0.00533447,
4632,0.000610352,0.00531616,
4634,-0.00610352,0.00534058,
4636,-0.00366211,0.00532837,
4638,-0.00549316,0.00528564,
4640,-0.010376,0.00523682,
4642,-0.000610352,0.00523071,
4644,-0.00610352,0.00528564,
4646,-0.00305176,0.00527954,
4648,0,0.00524902,
4650,-0.00976563,0.00516968,
4652,-0.00427246,0.00518799,
4654,-0.00427246,0.00515747,
4656,-0.00427246,0.00516968,
4658,-0.00976563,0.00524292,
4660,0.0115967,0.00534058,
4662,0.0134277,0.00544434,
4664,-0.00366211,0.0053833,
4666,-0.0140381,0.00549927,
4668,0.00183105,0.00545654,
4670,0.00671387,0.00548096,
4672,0.00488281,0.00549316,
4674,-0.0177002,0.00564575,
4676,-0.00793457,0.00558472,
4678,-0.00976563,0.0055542,
4680,-0.0115967,0.00557861,
4682,-0.00305176,0.00549316,
4684,-0.00427246,0.00548096,
4686,-0.0012207,0.00545044,
4688,-0.0134277,0.00556641,
4690,-0.00732422,0.00552979,
4692,0.00610352,0.00557861,
4694,-0.00366211,0.0055603,
4696,-0.0109863,0.00562134,
4698,0.00305176,0.00562744,
4700,-0.0134277,0.00568237,
4702,0.000610352,0.00566406,
4704,-0.00549316,0.00570068,
4706,-0.0177002,0.00584106,
4708,0.00427246,0.00585938,
4710,-0.00610352,0.00581665,
4712,-0.00732422,0.00586548,
4714,-0.00366211,0.00583496,
4716,-0.00610352,0.00588989,
4718,0.0012207,0.005896,
4720,0.000610352,0.00588379,
4722,-0.0012207,0.00588989,
4724,-0.00732422,0.00584106,
4726,0.000610352,0.00578613,
4728,0,0.00568237,
4730,-0.00549316,0.00563965,
4732,0,0.00560913,
4734,-0.00305176,0.00554199,
4736,0.00183105,0.00550537,
4738,0,0.00546875,
4740,-0.00549316,0.00536499,
4742,0.0012207,0.00537109,
4744,0.00427246,0.00533447,
4746,-0.0012207,0.00529175,
4748,-0.00427246,0.00531006,
4750,-0.00610352,0.00530396,
4752,-0.00244141,0.00523682,
4754,-0.00488281,0.00524292,
4756,-0.00427246,0.0052124,
4758,-0.000610352,0.0052124,
4760,-0.00366211,0.00517578,
4762,0.00549316,0.00515137,
4764,-0.00488281,0.00515747,
4766,-0.00183105,0.00516357,
4768,-0.00671387,0.00522461,
4770,0.00366211,0.00525513,
4772,0.00244141,0.00526733,
4774,-0.00305176,0.00529175,
4776,-0.00854492,0.00529175,
4778,0,0.00524292,
4780,-0.012207,0.00526733,
4782,0,0.00525513,
4784,0,0.00511475,
4786,0,0.00507202,
4788,-0.00549316,0.00509033,
4790,-0.0109863,0.00510864,
4792,0.00610352,0.00516357,
4794,-0.00854492,0.00516968,
4796,-0.00854492,0.0052063,
4798,0.00671387,0.00526733,
4800,-0.00793457,0.00521851,
4802,-0.00305176,0.00522461,
4804,-0.00488281,0.00524292,
4806,-0.00854492,0.00527344,
4808,0.00549316,0.00527954,
4810,-0.0012207,0.00524902,
4812,-0.00427246,0.00525513,
4814,0.00183105,0.00522461,
4816,0.00366211,0.00521851,
4818,-0.00427246,0.00524292,
4820,0.00854492,0.00529175,
4822,0.00305176,0.00529785,
4824,-0.0109863,0.00534668,
4826,0.0012207,0.00534058,
4828,0.000610352,0.00532227,
4830,-0.00244141,0.00516357,
4832,-0.0012207,0.00516968,
4834,-0.00488281,0.00515747,
4836,0.00183105,0.00513916,
4838,-0.000610352,0.00509033,
4840,-0.00610352,0.00504761,
4842,0.0012207,0.00505371,
4844,0,0.00499268,
4846,-0.00183105,0.00498047,
4848,0.00671387,0.00504761,
4850,-0.00854492,0.0050354,
4852,0.000610352,0.00499878,
4854,-0.0012207,0.00496826,
4856,-0.00488281,0.00497437,
4858,0,0.00487671,
4860,-0.000610352,0.00476685,
4862,-0.00366211,0.00466919,
4864,-0.00427246,0.00467529,
4866,0.000610352,0.00454102,
4868,0.000610352,0.00452881,
4870,-0.00183105,0.00447998,
4872,0.00244141,0.00445557,
4874,-0.00366211,0.00431519,
4876,0.00427246,0.00427856,
4878,-0.00488281,0.00422974,
4880,-0.000610352,0.00411987,
4882,0.00915527,0.00418091,
4884,-0.00488281,0.00418701,
4886,0.0012207,0.00418701,
4888,0.00366211,0.00408936,
4890,-0.00244141,0.00404053,
4892,0.00488281,0.00402832,
4894,0.0012207,0.00400391,
4896,0.00732422,0.00396729,
4898,0.00366211,0.00397339,
4900,-0.0140381,0.00397949,
4902,0.00244141,0.0039978,
4904,-0.00427246,0.0039856,
4906,-0.00305176,0.00383911,
4908,0,0.00379639,
4910,-0.00671387,0.00380249,
4912,-0.00305176,0.00375977,
4914,0.00183105,0.00374146,
4916,0.00366211,0.00371704,
4918,-0.00671387,0.00377197,
4920,0.00854492,0.00385132,
4922,0.00183105,0.00385742,
4924,0.000610352,0.00379028,
4926,-0.00366211,0.0038208,
4928,-0.00610352,0.00388184,
4930,0.00305176,0.00385742,
4932,0.00671387,0.00392456,
4934,-0.00488281,0.00394287,
4936,0.00488281,0.00397339,
4938,0.0128174,0.00410156,
4940,-0.012207,0.0041687,
4942,0.00854492,0.00424194,
4944,0.00427246,0.00424194,
4946,-0.00854492,0.00431519,
4948,-0.00305176,0.00430298,
4950,-0.00549316,0.00429688,
4952,-0.00671387,0.0043396,
4954,-0.00183105,0.00430908,
4956,-0.00305176,0.00429688,
4958,-0.00183105,0.00430908,
4960,0.0012207,0.00428467,
4962,0.00671387,0.00429688,
4964,-0.00305176,0.00427856,
4966,-0.00732422,0.0043335,
4968,0.00427246,0.00430908,
4970,-0.00305176,0.00430298,
4972,-0.000610352,0.00428467,
4974,-0.00793457,0.0043335,
4976,-0.00244141,0.00427246,
4978,-0.00732422,0.0043457,
4980,-0.00488281,0.00427246,
4982,0.00305176,0.00430298,
4984,-0.00427246,0.0043457,
4986,-0.000610352,0.00435181,
4988,-0.00183105,0.00431519,
4990,-0.00549316,0.00426025,
4992,0.00549316,0.00425415,
4994,-0.00671387,0.00423584,
4996,-0.00244141,0.0041748,
4998,0.00549316,0.0041626,
5000,-0.012207,0.00420532,
5002,0.00549316,0.00422974,
5004,0.00793457,0.00426025,
5006,0.00427246,0.00421753,
5008,-0.00244141,0.00418701,
5010,-0.00488281,0.00422363,
5012,0.00305176,0.00421143,
5014,0.00305176,0.00422363,
5016,-0.00427246,0.00422974,
5018,-0.00488281,0.00423584,
5020,-0.00732422,0.00422363,
5022,-0.000610352,0.00419922,
5024,-0.00793457,0.0041687,
5026,0.00610352,0.00421753,
5028,-0.000610352,0.00421753,
5030,-0.00732422,0.00426636,
5032,0.00793457,0.0043335,
5034,0,0.00428467,
5036,-0.00427246,0.00430908,
5038,0.00305176,0.0043335,
5040,-0.00671387,0.0043396,
5042,0.00427246,0.00437012,
5044,-0.00854492,0.00445557,
5046,-0.0012207,0.00444946,
5048,0.00366211,0.00441895,
5050,-0.00854492,0.00441895,
5052,-0.000610352,0.00441895,
5054,-0.00244141,0.00443115,
5056,-0.000610352,0.00438843,
5058,0.000610352,0.00439453,
5060,0.000610352,0.00439453,
5062,-0.00305176,0.00438843,
5064,0.000610352,0.00435181,
5066,-0.00427246,0.00438843,
5068,-0.00244141,0.00440674,
5070,-0.00549316,0.00444336,
5072,-0.000610352,0.00442505,
5074,-0.00610352,0.00444946,
5076,-0.0012207,0.00441895,
5078,-0.00976563,0.00446777,
5080,-0.00610352,0.00452271,
5082,0.0012207,0.00444336,
5084,-0.00244141,0.00441895,
5086,0.00366211,0.00444336,
5088,-0.00366211,0.00444336,
5090,-0.00427246,0.00446167,
5092,0,0.00441284,
5094,-0.00671387,0.00446777,
5096,0.00488281,0.00444336,
5098,0.00183105,0.00442505,
5100,-0.0170898,0.00445557,
5102,-0.00427246,0.00447388,
5104,-0.00549316,0.00448608,
5106,-0.00732422,0.00452881,
5108,-0.00183105,0.00454712,
5110,-0.0115967,0.00459595,
5112,-0.00183105,0.00458374,
5114,0.0012207,0.00457764,
5116,-0.00610352,0.00460205,
5118,0,0.00453491,
5120,-0.00305176,0.00447998,
5122,0.00305176,0.00449219,
5124,-0.00305176,0.0045166,
5126,0,0.00447998,
5128,-0.00305176,0.00444946,
5130,0.00549316,0.00447388,
5132,0.0012207,0.00441895,
5134,0.0012207,0.00438232,
5136,-0.00610352,0.00439453,
5138,0.00671387,0.0043335,
5140,-0.00183105,0.00422974,
5142,0.00305176,0.0041748,
5144,-0.00549316,0.00418701,
5146,-0.00854492,0.00418701,
5148,0.00183105,0.0041748,
5150,-0.0109863,0.00422974,
5152,-0.00244141,0.00418701,
5154,0.000610352,0.0041748,
5156,-0.00244141,0.0041687,
5158,0,0.00415039,
5160,-0.00549316,0.00419312,
5162,-0.00366211,0.0041626,
5164,0.00427246,0.0041748,
5166,-0.00610352,0.0041626,
5168,-0.00183105,0.00413818,
5170,-0.00305176,0.00413818,
5172,-0.00488281,0.00418091,
5174,-0.00854492,0.00418701,
5176,0.00366211,0.00419922,
5178,-0.0140381,0.00426636,
5180,-0.00305176,0.00424805,
5182,-0.00366211,0.00425415,
5184,-0.00732422,0.00428467,
5186,0.00427246,0.00432129,
5188,-0.00671387,0.00437012,
5190,-0.00854492,0.00440063,
5192,-0.00732422,0.00441895,
5194,-0.00366211,0.00438843,
5196,-0.00549316,0.00441895,
5198,0.00244141,0.00438843,
5200,-0.0109863,0.00437622,
5202,-0.00488281,0.00437012,
5204,-0.00793457,0.00437012,
5206,-0.00915527,0.00441895,
5208,0.00854492,0.00447998,
5210,-0.00244141,0.00445557,
5212,-0.0128174,0.00455322,
5214,0,0.00452271,
5216,-0.00183105,0.00449829,
5218,-0.00183105,0.00446777,
5220,-0.00305176,0.00442505,
5222,0.0012207,0.00443115,
5224,-0.00732422,0.00442505,
5226,-0.00610352,0.00442505,
5228,-0.00732422,0.00449219,
5230,-0.00305176,0.00444946,
5232,-0.00183105,0.00438843,
5234,-0.00671387,0.00445557,
5236,-0.00732422,0.00448608,
5238,0.0012207,0.00446777,
5240,-0.00732422,0.00447388,
5242,-0.00183105,0.00444946,
5244,-0.00488281,0.00441284,
5246,-0.00183105,0.00441895,
5248,-0.000610352,0.00438843,
5250,-0.00793457,0.00438232,
5252,-0.00183105,0.00439453,
5254,-0.0012207,0.00438232,
5256,-0.00488281,0.00442505,
5258,-0.000610352,0.00442505,
5260,-0.000610352,0.00442505,
5262,0,0.00439453,
5264,0.0012207,0.00440063,
5266,0.00183105,0.00437622,
5268,0.00427246,0.00439453,
5270,-0.00488281,0.00438843,
5272,0.00244141,0.00440674,
5274,0.00244141,0.00437012,
5276,-0.00427246,0.00440063,
5278,0.00305176,0.0043335,
5280,-0.00854492,0.00435791,
5282,0.00732422,0.00441895,
5284,-0.00183105,0.00441284,
5286,0.00183105,0.00439453,
5288,0.00305176,0.00438843,
5290,-0.00244141,0.00437012,
5292,0.00610352,0.00443115,
5294,-0.00488281,0.00441284,
5296,0.00366211,0.00440063,
5298,0,0.00438232,
5300,-0.00427246,0.00425415,
5302,-0.00183105,0.00422974,
5304,-0.000610352,0.00418091,
5306,0,0.00410767,
5308,0.0115967,0.00420532,
5310,0.00427246,0.00413208,
5312,-0.00549316,0.0041687,
5314,0.00488281,0.00420532,
5316,0.00305176,0.0041748,
5318,-0.000610352,0.00418091,
5320,0.00427246,0.00419312,
5322,-0.00488281,0.00421143,
5324,-0.00610352,0.00424194,
5326,0.000610352,0.00424805,
5328,0.00610352,0.00427856,
5330,-0.00549316,0.00427856,
5332,0.00427246,0.00430908,
5334,0.00305176,0.00432739,
5336,0.000610352,0.00427246,
5338,0.00732422,0.00427856,
5340,-0.000610352,0.00426636,
5342,0.00366211,0.00427246,
5344,-0.00549316,0.00427246,
5346,0.00183105,0.00420532,
5348,0.00732422,0.00426025,
5350,0,0.00415039,
5352,-0.00305176,0.00415649,
5354,-0.00732422,0.00422363,
5356,0,0.00419922,
5358,0.00427246,0.00424194,
5360,-0.00793457,0.00426636,
5362,-0.00183105,0.00424805,
5364,0.00671387,0.00427246,
5366,-0.0109863,0.00432129,
5368,0.0012207,0.00431519,
5370,-0.00305176,0.00431519,
5372,-0.000610352,0.00427246,
5374,-0.000610352,0.00419312,
5376,-0.00854492,0.00424194,
5378,-0.00183105,0.00411987,
5380,-0.00366211,0.00412598,
5382,0.00244141,0.00411377,
5384,-0.00976563,0.00413818,
5386,0.0012207,0.00410767,
5388,0.00610352,0.00410156,
5390,-0.00732422,0.00408936,
5392,-0.000610352,0.00402222,
5394,0.0012207,0.0039978,
5396,-0.00427246,0.0039856,
5398,0.00183105,0.00397949,
5400,-0.00549316,0.00392456,
5402,-0.00183105,0.00389404,
5404,0,0.0038147,
5406,-0.00671387,0.00379028,
5408,0.00427246,0.00374756,
5410,0.000610352,0.00372925,
5412,-0.00366211,0.0036377,
5414,0.00427246,0.00368042,
5416,-0.00427246,0.00370483,
5418,0.0012207,0.00369873,
5420,-0.00183105,0.00368652,
5422,0,0.00367432,
5424,-0.00244141,0.00362549,
5426,0.00244141,0.00358887,
5428,-0.0012207,0.00352783,
5430,-0.0140381,0.0036377,
5432,0.00183105,0.0036377,
5434,-0.00183105,0.00358887,
5436,-0.00305176,0.00354614,
5438,-0.00671387,0.00360107,
5440,-0.00915527,0.00361938,
5442,-0.00183105,0.00361938,
5444,-0.00854492,0.00365601,
5446,-0.00488281,0.00368652,
5448,-0.000610352,0.00368652,
5450,-0.00976563,0.00370483,
5452,-0.00976563,0.00378418,
5454,-0.00549316,0.0038269,
5456,-0.00488281,0.0038269,
5458,-0.00549316,0.00387573,
5460,-0.000610352,0.00387573,
5462,-0.00427246,0.00391846,
5464,0.00671387,0.00397339,
5466,-0.0115967,0.00407104,
5468,-0.00427246,0.00407104,
5470,0,0.00402222,
5472,-0.000610352,0.00400391,
5474,-0.010376,0.00408325,
5476,-0.0115967,0.00415649,
5478,-0.00976563,0.00422363,
5480,-0.00915527,0.00422974,
5482,-0.00671387,0.00422363,
5484,-0.00427246,0.00424805,
5486,-0.00549316,0.00428467,
5488,-0.00366211,0.00429077,
5490,-0.00976563,0.00436401,
5492,0.000610352,0.00430908,
5494,-0.0128174,0.00438843,
5496,-0.0152588,0.00450439,
5498,-0.000610352,0.0045105,
5500,-0.0164795,0.00463257,
5502,-0.010376,0.00471802,
5504,-0.00915527,0.00480347,
5506,-0.0128174,0.00493164,
5508,-0.00366211,0.00485229,
5510,-0.00976563,0.00490723,
5512,-0.00427246,0.00489502,
5514,0.00183105,0.0048645,
5516,-0.00732422,0.00490723,
5518,-0.00610352,0.00496216,
5520,-0.000610352,0.00492554,
5522,0.00183105,0.00489502,
5524,-0.00732422,0.00490723,
5526,-0.00732422,0.00497437,
5528,0.000610352,0.00491943,
5530,-0.00488281,0.00491333,
5532,-0.00854492,0.00495605,
5534,-0.00427246,0.00496826,
5536,-0.000610352,0.00496826,
5538,-0.00244141,0.00491943,
5540,-0.0140381,0.00505371,
5542,-0.00183105,0.0050354,
5544,-0.00366211,0.00501709,
5546,-0.00427246,0.0050415,
5548,0.00305176,0.00499878,
5550,-0.012207,0.00512085,
5552,0.00366211,0.00512695,
5554,0,0.00505371,
5556,0.000610352,0.00505981,
5558,-0.0012207,0.0050293,
5560,-0.00244141,0.00497437,
5562,0.000610352,0.00496216,
5564,0.00732422,0.00496826,
5566,-0.00854492,0.00494385,
5568,-0.00305176,0.00496216,
5570,-0.00976563,0.0050293,
5572,-0.00915527,0.00511475,
5574,-0.00976563,0.0052063,
5576,-0.00671387,0.00518799,
5578,-0.0140381,0.00531006,
5580,-0.0140381,0.00541382,
5582,-0.00488281,0.00543823,
5584,-0.00854492,0.00542603,
5586,-0.00549316,0.00546875,
5588,-0.000610352,0.00541382,
5590,-0.00610352,0.00540161,
5592,-0.00183105,0.00541382,
5594,-0.00427246,0.00544434,
5596,-0.00366211,0.00543823,
5598,-0.00183105,0.00543823,
5600,-0.00549316,0.00543823,
5602,0.00244141,0.00544434,
5604,-0.00610352,0.00550537,
5606,-0.0183105,0.00562134,
5608,0.00915527,0.00567017,
5610,-0.0012207,0.00567627,
5612,-0.00488281,0.00568848,
5614,0.0012207,0.00565796,
5616,-0.0109863,0.0057251,
5618,0,0.00571289,
5620,0.00244141,0.00571899,
5622,-0.00244141,0.00574341,
5624,-0.00793457,0.00579834,
5626,-0.000610352,0.00578003,
5628,-0.00427246,0.00581055,
5630,-0.00854492,0.00575562,
5632,-0.0012207,0.00574951,
5634,-0.00366211,0.00576782,
5636,0,0.0057373,
5638,-0.00244141,0.00569458,
5640,-0.012207,0.0057251,
5642,-0.00183105,0.0057251,
5644,-0.00549316,0.00569458,
5646,-0.00305176,0.00567627,
5648,0.00183105,0.00568848,
5650,-0.00793457,0.00567017,
5652,-0.0146484,0.00571899,
5654,0,0.00566406,
5656,-0.00610352,0.00567627,
5658,0.0012207,0.00563354,
5660,-0.00549316,0.00568237,
5662,-0.000610352,0.00564575,
5664,-0.000610352,0.00558472,
5666,0.00244141,0.00549316,
5668,-0.00610352,0.00551147,
5670,0.0012207,0.00552368,
5672,0.00183105,0.00553589,
5674,-0.00305176,0.00546265,
5676,-0.00244141,0.00537109,
5678,-0.00183105,0.00529175,
5680,-0.00793457,0.00527954,
5682,0.0012207,0.00522461,
5684,-0.00366211,0.00521851,
5686,0.00671387,0.00523071,
5688,-0.00671387,0.00526123,
5690,-0.00732422,0.00523682,
5692,0.00854492,0.00531616,
5694,-0.000610352,0.00519409,
5696,-0.00854492,0.00512695,
5698,-0.00183105,0.00513916,
5700,-0.00183105,0.00499268,
5702,0.00488281,0.00493774,
5704,0.00366211,0.00488281,
5706,-0.0195313,0.00494995,
5708,0.00366211,0.00494995,
5710,0.00610352,0.00491333,
5712,-0.00854492,0.00495605,
5714,-0.000610352,0.00494385,
5716,-0.00183105,0.00488892,
5718,-0.00427246,0.00487061,
5720,-0.010376,0.00496826,
5722,-0.000610352,0.00495605,
5724,-0.0012207,0.00489502,
5726,0.00244141,0.00484619,
5728,-0.00549316,0.00489502,
5730,-0.000610352,0.00485229,
5732,0.00183105,0.00478516,
5734,0.000610352,0.00474854,
5736,0,0.00474243,
5738,-0.00183105,0.00473633,
5740,-0.00183105,0.00461426,
5742,0.0012207,0.00460815,
5744,-0.0109863,0.0046814,
5746,0,0.00463867,
5748,-0.000610352,0.00461426,
5750,-0.00610352,0.00455322,
5752,-0.00671387,0.00458374,
5754,-0.00183105,0.00460205,
5756,0,0.00459595,
5758,-0.000610352,0.00458984,
5760,-0.00427246,0.00460815,
5762,-0.00183105,0.00462036,
5764,-0.000610352,0.00455322,
5766,-0.00183105,0.00448608,
5768,-0.00732422,0.00452881,
5770,-0.00488281,0.00447998,
5772,0.0012207,0.00440063,
5774,-0.00305176,0.0043335,
5776,-0.00488281,0.00431519,
5778,-0.000610352,0.00418091,
5780,-0.00305176,0.00407104,
5782,0.0109863,0.00413208,
5784,-0.00488281,0.00409546,
5786,-0.00244141,0.00406494,
5788,0.010376,0.0041626,
5790,0.00366211,0.00413818,
5792,0.000610352,0.00412598,
5794,-0.00915527,0.0041748,
5796,0.000610352,0.00414429,
5798,-0.00183105,0.00414429,
5800,-0.0128174,0.00421753,
5802,-0.0012207,0.00420532,
5804,-0.00366211,0.00418091,
5806,-0.00915527,0.00408936,
5808,-0.0012207,0.00401001,
5810,-0.00305176,0.00402832,
5812,0.000610352,0.0039856,
5814,0,0.00397339,
5816,-0.00183105,0.00388184,
5818,0.0012207,0.00389404,
5820,0.00183105,0.00388794,
5822,0.0012207,0.00387573,
5824,0.00366211,0.00383301,
5826,-0.00244141,0.00385132,
5828,-0.00366211,0.00384521,
5830,0.0012207,0.00377197,
5832,0.000610352,0.00376587,
5834,-0.000610352,0.00373535,
5836,-0.0012207,0.00374756,
5838,0,0.00372314,
5840,-0.00366211,0.0036377,
5842,0.000610352,0.00362549,
5844,0,0.00357056,
5846,-0.00427246,0.00358276,
5848,0.00244141,0.00358887,
5850,-0.00244141,0.00353394,
5852,-0.00244141,0.00341187,
5854,0.00549316,0.0034668,
5856,0.00244141,0.00343018,
5858,0.000610352,0.00342407,
5860,-0.00549316,0.00342407,
5862,0.00793457,0.00349731,
5864,0.0109863,0.00360107,
5866,-0.022583,0.00380249,
5868,0.00183105,0.00375977,
5870,-0.00488281,0.00379639,
5872,-0.00366211,0.0038147,
5874,-0.00793457,0.00386353,
5876,-0.00427246,0.00388184,
5878,0,0.00386353,
5880,-0.00793457,0.00386353,
5882,0,0.00385132,
5884,-0.00183105,0.00383301,
5886,0,0.00376587,
5888,0.0012207,0.00371094,
5890,-0.00793457,0.00371704,
5892,-0.00427246,0.00367432,
5894,-0.00732422,0.00374146,
5896,-0.00488281,0.00370483,
5898,0.00244141,0.00371094,
5900,-0.0152588,0.00384521,
5902,0.00854492,0.00388184,
5904,-0.0012207,0.00385742,
5906,-0.00244141,0.00368652,
5908,-0.00244141,0.00367432,
5910,0,0.00361328,
5912,-0.00305176,0.00355835,
5914,0.0012207,0.00356445,
5916,-0.010376,0.0036499,
5918,-0.010376,0.00371094,
5920,-0.00366211,0.0036438,
5922,-0.00610352,0.00369873,
5924,-0.00793457,0.00376587,
5926,-0.00854492,0.0038269,
5928,-0.00549316,0.0038269,
5930,-0.00366211,0.00385742,
5932,-0.0012207,0.00385132,
5934,-0.00305176,0.00387573,
5936,-0.00305176,0.00390625,
5938,0.0012207,0.00390015,
5940,-0.00366211,0.00391846,
5942,0.00488281,0.00395508,
5944,-0.00488281,0.00389404,
5946,-0.00427246,0.00393677,
5948,0.00915527,0.00402222,
5950,-0.00976563,0.00405884,
5952,-0.00854492,0.00407715,
5954,0,0.00405884,
5956,-0.00488281,0.00410767,
5958,0.00427246,0.00414429,
5960,-0.00610352,0.0041626,
5962,-0.00732422,0.00421753,
5964,0.0109863,0.00432129,
5966,-0.00976563,0.00440063,
5968,0.00183105,0.0043457,
5970,0.000610352,0.00430298,
5972,-0.0012207,0.00430298,
5974,0.0012207,0.00428467,
5976,-0.00366211,0.00427246,
5978,-0.00305176,0.00429688,
5980,-0.0012207,0.00427856,
5982,0.00244141,0.00419312,
5984,0.00549316,0.00419922,
5986,-0.00305176,0.00420532,
5988,0.00488281,0.00415039,
5990,-0.00183105,0.00413208,
5992,0.00366211,0.0041626,
5994,-0.00549316,0.00412598,
5996,-0.00366211,0.00415649,
5998,0.00183105,0.00415649,
6000,-0.010376,0.00413208,
6002,-0.0012207,0.00413208,
6004,-0.000610352,0.00410156,
6006,-0.00732422,0.00408325,
6008,0.00305176,0.00410156,
6010,-0.000610352,0.00407715,
6012,0.00366211,0.00410767,
6014,0.00366211,0.00414429,
6016,0.00183105,0.00414429,
6018,-0.00305176,0.0041626,
6020,-0.00854492,0.00422974,
6022,0.0146484,0.00436401,
6024,0.000610352,0.0043335,
6026,-0.0012207,0.00432129,
6028,-0.00305176,0.00431519,
6030,-0.00610352,0.00436401,
6032,0.00610352,0.00441895,
6034,-0.00244141,0.00443726,
6036,0.0012207,0.00443726,
6038,-0.00244141,0.00446167,
6040,-0.0177002,0.00460205,
6042,-0.00244141,0.00462036,
6044,-0.00610352,0.0046814,
6046,-0.00854492,0.00472412,
6048,-0.00976563,0.00479736,
6050,-0.00305176,0.00480347,
6052,-0.00183105,0.00479736,
6054,-0.00671387,0.00480957,
6056,-0.00915527,0.00487671,
6058,0.00732422,0.00494385,
6060,-0.00549316,0.00494385,
6062,-0.00244141,0.00488892,
6064,-0.0012207,0.00479126,
6066,-0.00854492,0.00465088,
6068,-0.00610352,0.0046936,
6070,0.000610352,0.00465088,
6072,0.0012207,0.00462646,
6074,-0.010376,0.00465088,
6076,0.000610352,0.00461426,
6078,-0.00488281,0.00466309,
6080,-0.0012207,0.00459595,
6082,0.00488281,0.00464478,
6084,-0.00671387,0.0046936,
6086,-0.00305176,0.00472412,
6088,0.00488281,0.00476074,
6090,-0.00732422,0.00475464,
6092,0,0.00471191,
6094,-0.00976563,0.00473633,
6096,-0.0012207,0.00469971,
6098,-0.00366211,0.00471191,
6100,-0.00549316,0.00461426,
6102,0.00244141,0.00455322,
6104,-0.00427246,0.00458374,
6106,-0.00915527,0.00465088,
6108,0.00183105,0.00464478,
6110,0.00366211,0.0046814,
6112,0.0012207,0.00466309,
6114,-0.00732422,0.00472412,
6116,-0.00427246,0.00466309,
6118,0.00427246,0.00460205,
6120,-0.0140381,0.00470581,
6122,-0.00854492,0.00473022,
6124,-0.00732422,0.00472412,
6126,-0.00793457,0.00471802,
6128,-0.00427246,0.00470581,
6130,-0.00671387,0.00473633,
6132,-0.00488281,0.00477295,
6134,-0.00793457,0.00482178,
6136,0.00244141,0.00481567,
6138,0.000610352,0.00480957,
6140,-0.00549316,0.00482788,
6142,-0.00183105,0.00479736,
6144,-0.00671387,0.00481567,
6146,-0.00671387,0.00484009,
6148,-0.00183105,0.00476685,
6150,-0.00793457,0.00474854,
6152,-0.00427246,0.00470581,
6154,-0.0012207,0.00471802,
6156,-0.00793457,0.00474854,
6158,-0.00366211,0.00474243,
6160,-0.00488281,0.00473022,
6162,-0.00183105,0.00467529,
6164,0.0012207,0.00457764,
6166,-0.00854492,0.00456543,
6168,-0.0146484,0.0046936,
6170,-0.000610352,0.0046936,
6172,-0.00244141,0.00470581,
6174,-0.00610352,0.00475464,
6176,-0.0109863,0.00482788,
6178,-0.00549316,0.00485229,
6180,-0.00976563,0.00493774,
6182,-0.0012207,0.00492554,
6184,-0.00915527,0.00496216,
6186,-0.00488281,0.00498047,
6188,-0.00488281,0.00498047,
6190,-0.00610352,0.00502319,
6192,0.00183105,0.00500488,
6194,-0.010376,0.00505371,
6196,-0.00610352,0.00507813,
6198,0.00854492,0.00514526,
6200,-0.00549316,0.00509644,
6202,-0.010376,0.00518799,
6204,0.000610352,0.00518799,
6206,-0.00366211,0.00515137,
6208,0.00488281,0.00516968,
6210,-0.00854492,0.00524902,
6212,0.0012207,0.00522461,
6214,0.0012207,0.0052002,
6216,-0.0146484,0.00532837,
6218,-0.00305176,0.00532837,
6220,-0.00671387,0.00531006,
6222,-0.00671387,0.00523071,
6224,-0.0115967,0.00534058,
6226,-0.00732422,0.00540161,
6228,-0.00488281,0.00541992,
6230,-0.00183105,0.0053772,
6232,-0.00305176,0.00534668,
6234,-0.00244141,0.00534668,
6236,-0.00366211,0.00537109,
6238,0.0128174,0.00547485,
6240,-0.00976563,0.00539551,
6242,-0.00610352,0.00543213,
6244,-0.000610352,0.0053772,
6246,0.00366211,0.00532837,
6248,0.0115967,0.00534668,
6250,-0.00854492,0.00540161,
6252,-0.00244141,0.00540771,
6254,-0.0012207,0.00535278,
6256,-0.00366211,0.00529785,
6258,0.00183105,0.00524292,
6260,-0.00427246,0.00523071,
6262,-0.00549316,0.00526123,
6264,-0.00488281,0.00529785,
6266,-0.0115967,0.00532837,
6268,-0.00549316,0.00532227,
6270,-0.00366211,0.00535278,
6272,-0.00488281,0.0053894,
6274,0.00244141,0.00531006,
6276,-0.00305176,0.00533447,
6278,0.00488281,0.00533447,
6280,0.00671387,0.0053894,
6282,-0.00488281,0.0053894,
6284,-0.00305176,0.00535278,
6286,-0.00366211,0.00535889,
6288,0.00732422,0.0053833,
6290,-0.00305176,0.00534058,
6292,-0.00488281,0.0053894,
6294,-0.0109863,0.00540161,
6296,-0.00671387,0.00545654,
6298,0.00183105,0.00543823,
6300,-0.00732422,0.00545654,
6302,0.00366211,0.00546875,
6304,-0.00183105,0.00544434,
6306,0,0.00535278,
6308,0.00366211,0.00537109,
6310,-0.00183105,0.00535278,
6312,-0.0012207,0.00535278,
6314,0.00427246,0.00532227,
6316,-0.00671387,0.00534668,
6318,-0.00610352,0.00536499,
6320,0.00488281,0.00527344,
6322,-0.00854492,0.00527344,
6324,0.00244141,0.00522461,
6326,-0.00183105,0.00516357,
6328,-0.00671387,0.00518799,
6330,-0.0012207,0.00513306,
6332,-0.00488281,0.00513306,
6334,-0.00610352,0.00511475,
6336,-0.00915527,0.00518188,
6338,-0.00427246,0.00521851,
6340,-0.00915527,0.00525513,
6342,-0.0115967,0.00535278,
6344,-0.00671387,0.00535278,
6346,-0.000610352,0.00529175,
6348,-0.00976563,0.00537109,
6350,-0.00244141,0.00531616,
6352,-0.00488281,0.00532227,
6354,-0.0012207,0.00532227,
6356,-0.010376,0.00534668,
6358,0.0012207,0.00532227,
6360,0,0.00527344,
6362,-0.00915527,0.00534668,
6364,-0.00183105,0.00535278,
6366,-0.00427246,0.00531006,
6368,0.00488281,0.0052124,
6370,-0.0115967,0.00532227,
6372,-0.00427246,0.00534058,
6374,0.00610352,0.00534058,
6376,-0.0140381,0.00537109,
6378,-0.00183105,0.00533447,
6380,-0.00610352,0.00529785,
6382,-0.00366211,0.00532227,
6384,-0.00366211,0.00526733,
6386,-0.00549316,0.00527344,
6388,0.000610352,0.00523071,
6390,-0.00488281,0.00521851,
6392,-0.000610352,0.0052063,
6394,-0.00244141,0.00512695,
6396,-0.00793457,0.00514526,
6398,0.00427246,0.00510254,
6400,-0.00488281,0.00509644,
6402,0,0.00499268,
6404,-0.000610352,0.00499268,
6406,-0.00488281,0.00500488,
6408,0.0115967,0.00507202,
6410,0.00366211,0.00502319,
6412,-0.0109863,0.00512085,
6414,0,0.00510864,
6416,-0.00305176,0.00499268,
6418,0.000610352,0.00496826,
6420,-0.010376,0.00500488,
6422,-0.00610352,0.00499878,
6424,-0.00732422,0.00495605,
6426,-0.00183105,0.00490112,
6428,-0.00366211,0.00488892,
6430,-0.00427246,0.00491333,
6432,0.00183105,0.00490112,
6434,-0.00244141,0.00490112,
6436,0.00183105,0.00488281,
6438,0.0012207,0.00476685,
6440,-0.00854492,0.00475464,
6442,0.00610352,0.00475464,
6444,-0.00915527,0.00484009,
6446,-0.00366211,0.00484009,
6448,-0.0012207,0.00473633,
6450,-0.00671387,0.00471802,
6452,-0.00549316,0.00474854,
6454,-0.00549316,0.00479126,
6456,-0.00793457,0.00483398,
6458,-0.00610352,0.00487671,
6460,-0.00427246,0.00487671,
6462,-0.00305176,0.00485229,
6464,-0.0012207,0.00481567,
6466,-0.00732422,0.00477295,
6468,-0.0012207,0.00473022,
6470,-0.00305176,0.00472412,
6472,-0.00732422,0.00474854,
6474,-0.0012207,0.00473633,
6476,0.00183105,0.00472412,
6478,-0.00610352,0.00473633,
6480,0.00671387,0.00473633,
6482,-0.00610352,0.00474854,
6484,0.00183105,0.00473633,
6486,0.00244141,0.00472412,
6488,0.00488281,0.00469971,
6490,-0.00610352,0.00473022,
6492,0.012207,0.00480347,
6494,-0.00183105,0.00471191,
6496,-0.00183105,0.00466309,
6498,0.00183105,0.00466309,
6500,-0.00305176,0.00462036,
6502,0,0.00458374,
6504,0.000610352,0.00457153,
6506,-0.0140381,0.00471191,
6508,0,0.00467529,
6510,-0.00610352,0.00471802,
6512,-0.0012207,0.00471802,
6514,0.00549316,0.00473022,
6516,-0.00915527,0.00475464,
6518,0.00244141,0.00471802,
6520,-0.012207,0.00479126,
6522,0.00244141,0.00473022,
6524,-0.00244141,0.00473022,
6526,-0.000610352,0.00471802,
6528,-0.0140381,0.00479126,
6530,-0.00671387,0.00484619,
6532,-0.00488281,0.00484619,
6534,-0.00244141,0.00480957,
6536,-0.00244141,0.00474243,
6538,0.0012207,0.00471191,
6540,-0.00793457,0.00469971,
6542,-0.00244141,0.00460815,
6544,-0.00366211,0.00457764,
6546,-0.00793457,0.00465088,
6548,0.00488281,0.00460205,
6550,-0.00366211,0.00461426,
6552,-0.00366211,0.00460205,
6554,-0.00244141,0.00461426,
6556,-0.00244141,0.00453491,
6558,0.00610352,0.00458374,
6560,-0.00366211,0.00462036,
6562,-0.00183105,0.00454712,
6564,0.00488281,0.00457764,
6566,-0.00244141,0.00455933,
6568,-0.00244141,0.00453491,
6570,0.0012207,0.00443115,
6572,-0.00488281,0.00443726,
6574,0.00488281,0.00442505,
6576,-0.010376,0.00438843,
6578,0.00427246,0.00441284,
6580,0.00610352,0.00441284,
6582,-0.00671387,0.00444336,
6584,-0.000610352,0.00441284,
6586,-0.00183105,0.00437622,
6588,0.00244141,0.00439453,
6590,-0.00427246,0.00438843,
6592,-0.00305176,0.00441284,
6594,0.0012207,0.00440063,
6596,-0.0140381,0.00446167,
6598,0.00366211,0.00445557,
6600,-0.00915527,0.00449829,
6602,0.00183105,0.0045166,
6604,-0.00610352,0.00457153,
6606,-0.00854492,0.00460815,
6608,0.00488281,0.00454102,
6610,0,0.00450439,
6612,0.00244141,0.00441895,
6614,-0.00793457,0.00449829,
6616,-0.000610352,0.00447388,
6618,0.00915527,0.00455933,
6620,-0.00610352,0.0045166,
6622,-0.0128174,0.00458374,
6624,0.00915527,0.00460205,
6626,-0.00305176,0.00461426,
6628,-0.00305176,0.00460815,
6630,0.0012207,0.00457764,
6632,0.0238037,0.00479736,
6634,0.0268555,0.0050415,
6636,0.0567627,0.00559082,
6638,-0.000610352,0.00558472,
6640,0.0152588,0.00565186,
6642,0.0305176,0.005896,
6644,0.0610352,0.00641479,
6646,0.0360107,0.00673828,
6648,0.0286865,0.00701294,
6650,0.00793457,0.00702515,
6652,-0.0219727,0.00718994,
6654,0.055542,0.00769043,
6656,0.0213623,0.00782471,
6658,0.0909424,0.0086731,
6660,0.065918,0.00928955,
6662,0.0750732,0.0100098,
6664,0.155029,0.0115479,
6666,-0.158691,0.0130615,
6668,-0.0598145,0.0136475,
6670,0.0384521,0.0140015,
6672,-0.0482178,0.0144104,
6674,-0.0280762,0.014679,
6676,-0.0830078,0.0154907,
6678,-0.0445557,0.0158752,
6680,-0.103149,0.0168396,
6682,0.0549316,0.0173279,
6684,-0.0213623,0.0175232,
6686,0.211182,0.0196106,
6688,0.0311279,0.019873,
6690,-0.24292,0.0222412,
6692,0.0128174,0.0222473,
6694,0.0769043,0.022998,
6696,-0.214844,0.0251282,
6698,0.0567627,0.0256775,
6700,-0.0512695,0.0261597,
6702,-0.144043,0.0276001,
6704,-0.0457764,0.0280518,
6706,-0.137939,0.0292908,
6708,0.114746,0.0304382,
6710,0.178833,0.0321655,
6712,-0.0506592,0.0326599,
6714,-0.205688,0.0346619,
6716,0.328979,0.0378601,
6718,0.0292969,0.0381287,
6720,0.00671387,0.0380737,
6722,-0.189819,0.0399475,
6724,-0.0799561,0.0407227,
6726,0.0396729,0.0411133,
6728,0.0567627,0.0415405,
6730,-0.139771,0.0428711,
6732,-0.362549,0.0464478,
6734,0.0866699,0.04729,
6736,0.264282,0.0499084,
6738,-0.043335,0.0503296,
6740,-0.2948,0.0531982,
6742,0.0640869,0.0538147,
6744,0.105591,0.054834,
6746,-0.175171,0.0565063,
6748,0.322876,0.0596863,
6750,-0.116577,0.0608154,
6752,-0.386353,0.0646423,
6754,0.0439453,0.0650574,
6756,0.088501,0.065918,
6758,-0.0244141,0.0661011,
6760,0.0201416,0.0662659,
6762,-0.206909,0.0683167,
6764,-0.105591,0.0693237,
6766,0.123291,0.0705322,
6768,0.0927734,0.0714355,
6770,-0.0848389,0.0722717,
6772,-0.0952148,0.073175,
6774,-0.098877,0.074115,
6776,0.0238037,0.0742493,
6778,0.179443,0.076001,
6780,-0.407104,0.080011,
6782,0.132446,0.0812683,
6784,0.0689697,0.0819519,
6786,-0.136719,0.0833008,
6788,0.24231,0.0856995,
6790,0.0415039,0.0860718,
6792,-0.136719,0.0874084,
6794,-0.171509,0.0891113,
6796,0.19104,0.0908813,
6798,0.0958252,0.091803,
6800,-0.223999,0.0939514,
6802,-0.0799561,0.0947327,
6804,0.34729,0.0981445,
6806,-0.257568,0.100635,
6808,-0.0231934,0.100818,
6810,0.3479,0.104297,
6812,-0.3125,0.107397,
6814,0.0653076,0.107971,
6816,0.0701904,0.108667,
6818,0.00671387,0.108643,
6820,-0.251465,0.111096,
6822,0.133667,0.112305,
6824,-0.0787354,0.113,
6826,-0.0469971,0.11344,
6828,-0.0610352,0.11402,
6830,0.020752,0.114215,
6832,0.0256348,0.114233,
6834,-0.055542,0.11452,
6836,-0.0671387,0.114624,
6838,-0.125732,0.115875,
6840,0.0427246,0.11615,
6842,0.0549316,0.116394,
6844,-0.0494385,0.116278,
6846,0.00366211,0.115955,
6848,0.0689697,0.116357,
6850,-0.0946045,0.117224,
6852,0.0543213,0.117548,
6854,0.0549316,0.117542,
6856,-0.0396729,0.117725,
6858,-0.0897217,0.117712,
6860,0.167847,0.118732,
6862,-0.0720215,0.118701,
6864,-0.0378418,0.117529,
6866,0.178833,0.117731,
6868,-0.192871,0.119061,
6870,0.0488281,0.119165,
6872,-0.0280762,0.118964,
6874,0.114746,0.11983,
6876,-0.0878906,0.119879,
6878,-0.0335693,0.119769,
6880,0.0158691,0.118896,
6882,0.201416,0.120361,
6884,-0.292358,0.123071,
6886,0.0775146,0.121735,
6888,0.0854492,0.122278,
6890,0.0952148,0.120801,
6892,-0.0323486,0.120996,
6894,-0.0811768,0.121039,
6896,0.057373,0.119464,
6898,-0.202026,0.120917,
6900,0.132446,0.121729,
6902,-0.00976563,0.120386,
6904,0.0238037,0.120166,
6906,-0.12085,0.119995,
6908,-0.130615,0.120154,
6910,-0.00366211,0.118402,
6912,0.117798,0.119073,
6914,0.0231934,0.117249,
6916,-0.0854492,0.114813,
6918,0.410767,0.118628,
6920,-0.0976563,0.119537,
6922,-0.258179,0.120221,
6924,0.108643,0.120508,
6926,0.0646973,0.120758,
6928,0.012207,0.120313,
6930,-0.0964355,0.119879,
6932,-0.203857,0.118292,
6934,-0.0280762,0.117706,
6936,-0.00549316,0.115118,
6938,0.0354004,0.115039,
6940,0.101318,0.113104,
6942,-0.13855,0.113849,
6944,0.109863,0.113892,
6946,0.142822,0.113568,
6948,0.180664,0.112146,
6950,-0.22522,0.113232,
6952,0.0854492,0.110223,
6954,0.132446,0.111108,
6956,-0.142822,0.111652,
6958,-0.0878906,0.112286,
6960,-0.0262451,0.112347,
6962,-0.0842285,0.111121,
6964,-0.0683594,0.110748,
6966,-0.055542,0.110071,
6968,0.00793457,0.109222,
6970,-0.0933838,0.109308,
6972,0.119019,0.109546,
6974,-0.101318,0.10957,
6976,0.0439453,0.109772,
6978,0.0366211,0.108344,
6980,-0.0268555,0.104541,
6982,-0.032959,0.103546,
6984,0.00976563,0.102954,
6986,0.0115967,0.101703,
6988,-0.0231934,0.0995117,
6990,-0.045166,0.0995483,
6992,0.0146484,0.0983276,
6994,0.0476074,0.0970886,
6996,0.0195313,0.0953735,
6998,0.0244141,0.0946594,
7000,-0.0622559,0.093042,
7002,0.112915,0.0933716,
7004,0.127563,0.0911743,
7006,-0.0891113,0.0894897,
7008,0.0323486,0.0895813,
7010,0.0341797,0.0864441,
7012,0.0280762,0.0835999,
7014,-0.0372314,0.0833191,
7016,-0.0946045,0.0835632,
7018,-0.0476074,0.0839722,
7020,-0.126343,0.0827209,
7022,0.0463867,0.0818481,
7024,-0.0177002,0.0812378,
7026,-0.186768,0.0826355,
7028,-0.0610352,0.0826355,
7030,0.0445557,0.0828735,
7032,0.0378418,0.0829956,
7034,-0.0561523,0.0830017,
7036,-0.0341797,0.0826721,
7038,-0.0653076,0.0820679,
7040,0.00183105,0.0816589,
7042,-0.0189209,0.0812988,
7044,-0.0927734,0.0817322,
7046,-0.132446,0.08302,
7048,0.0311279,0.0826416,
7050,-0.000610352,0.0817017,
7052,-0.102539,0.0821838,
7054,0.0366211,0.0820007,
7056,-0.0421143,0.0820251,
7058,-0.00427246,0.0811707,
7060,0.0860596,0.0803528,
7062,-0.012207,0.0797546,
7064,-0.0970459,0.0803467,
7066,0.012207,0.0786804,
7068,-0.0646973,0.0773987,
7070,-0.0286865,0.0771973,
7072,0.00610352,0.0769775,
7074,-0.0976563,0.0768066,
7076,-0.152588,0.0774536,
7078,-0.0109863,0.0772278,
7080,0.101318,0.0780823,
7082,-0.0805664,0.0768738,
7084,-0.167236,0.0756226,
7086,0.101318,0.0758606,
7088,-0.0653076,0.0756592,
7090,-0.0134277,0.0748413,
7092,0.177002,0.0762878,
7094,-0.117188,0.0766479,
7096,-0.166016,0.0777344,
7098,-0.0250244,0.0759644,
7100,0.197754,0.0766174,
7102,0.0366211,0.076886,
7104,-0.248413,0.0791321,
7106,-0.113525,0.0790588,
7108,0.148315,0.0792358,
7110,0.0854492,0.0800537,
7112,-0.123901,0.0801147,
7114,-0.022583,0.0801086,
7116,-0.0567627,0.0798218,
7118,-0.0158691,0.0758728,
7120,0.202637,0.0769226,
7122,-0.0665283,0.0750061,
7124,-0.0537109,0.0744568,
7126,-0.0280762,0.0740906,
7128,-0.0463867,0.0744324,
7130,-0.0726318,0.0741943,
7132,0.0531006,0.0726868,
7134,-0.0646973,0.073053,
7136,-0.00244141,0.0730225,
7138,-0.0744629,0.0734131,
7140,-0.0799561,0.0731995,
7142,-0.022583,0.0720398,
7144,0.236816,0.0733093,
7146,0.0366211,0.0722473,
7148,-0.151367,0.0719543,
7150,0.0305176,0.0700073,
7152,0.0195313,0.0693481,
7154,-0.113525,0.0691589,
7156,0.200195,0.0697327,
7158,0.0299072,0.0691528,
7160,-0.0958252,0.0698486,
7162,0.0378418,0.0693848,
7164,0.0286865,0.068988,
7166,0.0579834,0.0690125,
7168,0,0.0689331,
7170,0.00732422,0.0680725,
7172,0.0317383,0.0671997,
7174,0.00549316,0.0662415,
7176,-0.0738525,0.0665405,
7178,0.0262451,0.0664368,
7180,-0.0494385,0.0666626,
7182,0.0244141,0.0665771,
7184,0.133057,0.0678101,
7186,-0.0457764,0.0681519,
7188,0.0189209,0.0681091,
7190,0.0195313,0.0678528,
7192,0.0158691,0.067865,
7194,-0.204468,0.0694336,
7196,0.100098,0.0702393,
7198,0.0860596,0.0708557,
7200,-0.154419,0.0717773,
7202,-0.000610352,0.0706543,
7204,0.0366211,0.0697449,
7206,0.0390625,0.0692444,
7208,0.0305176,0.0692261,
7210,0.0323486,0.0692078,
7212,0.00671387,0.0689941,
7214,0.0164795,0.0687866,
7216,-0.0323486,0.0681641,
7218,-0.0231934,0.0679199,
7220,0.00305176,0.066687,
7222,-0.0244141,0.0664673,
7224,-0.0195313,0.0664856,
7226,0.0189209,0.0648071,
7228,0.0341797,0.0645386,
7230,0.0408936,0.064502,
7232,-0.0341797,0.0644653,
7234,-0.0646973,0.0645508,
7236,0.0524902,0.0647339,
7238,0.123291,0.0653137,
7240,-0.106812,0.0663635,
7242,-0.0292969,0.0664673,
7244,-0.213013,0.0676697,
7246,0.131836,0.0676636,
7248,0.142212,0.0687744,
7250,-0.10437,0.069812,
7252,-0.0469971,0.0692566,
7254,0.00793457,0.0689697,
7256,-0.00305176,0.0685791,
7258,0.0817871,0.0693542,
7260,0.00976563,0.0685913,
7262,0.000610352,0.0684753,
7264,-0.0500488,0.0680054,
7266,0.0494385,0.0683777,
7268,-0.0231934,0.0679626,
7270,-0.0280762,0.0679565,
7272,0.0305176,0.0682007,
7274,0.010376,0.0673279,
7276,-0.000610352,0.0658081,
7278,0.00732422,0.0657715,
7280,0.00549316,0.0648132,
7282,-0.0177002,0.0641846,
7284,-0.0561523,0.0630737,
7286,0.03479,0.0624084,
7288,-0.00915527,0.0618469,
7290,0.0115967,0.0618286,
7292,-0.00488281,0.0601074,
7294,-0.0408936,0.0593445,
7296,0.0134277,0.0578186,
7298,0.0213623,0.057782,
7300,-0.00366211,0.0558411,
7302,-0.0177002,0.0556519,
7304,0.0354004,0.0535217,
7306,-0.0299072,0.0526855,
7308,-0.0146484,0.0513489,
7310,0,0.0504944,
7312,0.0671387,0.0499268,
7314,0.0408936,0.0501099,
7316,-0.0457764,0.05,
7318,0.0762939,0.0506042,
7320,-0.0714111,0.049292,
7322,0.0354004,0.0489807,
7324,-0.00183105,0.0484619,
7326,-0.00183105,0.0481995,
7328,0.0469971,0.0482056,
7330,0.012207,0.0476013,
7332,-0.0817871,0.0478882,
7334,0.00183105,0.0472595,
7336,0.130005,0.0485352,
7338,0.0164795,0.0479553,
7340,0.00671387,0.0472229,
7342,-0.0634766,0.0476318,
7344,0.0653076,0.0459167,
7346,0.0585938,0.0461365,
7348,0.0158691,0.0447815,
7350,-0.0750732,0.0452271,
7352,-0.0500488,0.0455322,
7354,0.0427246,0.0448242,
7356,0.0610352,0.0434326,
7358,0.137939,0.0445129,
7360,0.108643,0.0446411,
7362,-0.192871,0.0461914,
7364,-0.109253,0.0469971,
7366,0.0982666,0.0473999,
7368,0.134888,0.0487488,
7370,0.0567627,0.0492432,
7372,-0.128174,0.0502075,
7374,-0.158081,0.0517334,
7376,-0.100098,0.0519958,
7378,-0.0189209,0.0519226,
7380,0.0958252,0.0523865,
7382,-0.114746,0.0532898,
7384,-0.0665283,0.0526245,
7386,0.0805664,0.0529724,
7388,0.166016,0.0544434,
7390,0.0579834,0.0548279,
7392,-0.115967,0.0558289,
7394,-0.0866699,0.0546509,
7396,0.22583,0.0559082,
7398,0.0146484,0.0551941,
7400,-0.0878906,0.0545288,
7402,-0.152588,0.0560486,
7404,-0.283813,0.0585205,
7406,0.055542,0.0586853,
7408,-0.0524902,0.058905,
7410,0.375366,0.0623352,
7412,0.163574,0.0639038,
7414,-0.357666,0.0673157,
7416,-0.0396729,0.0673889,
7418,0.222168,0.0693787,
7420,0.0610352,0.0699585,
7422,-0.224609,0.0719604,
7424,-0.375977,0.0755249,
7426,-0.0817871,0.0761536,
7428,-0.0579834,0.0763916,
7430,-0.203857,0.0780212,
7432,0.151367,0.0791931,
7434,-0.197754,0.0805237,
7436,-0.0488281,0.0804871,
7438,0.254517,0.0817993,
7440,-0.0543213,0.0812744,
7442,-0.0170898,0.0811523,
7444,0.107422,0.0800964,
7446,-0.0921631,0.0796997,
7448,-0.0408936,0.0786865,
7450,-0.105591,0.0786987,
7452,0.12207,0.0794495,
7454,0.0939941,0.0803101,
7456,0.0488281,0.0807678,
7458,-0.0775146,0.0807251,
7460,-0.120239,0.0818298,
7462,0.136719,0.0831909,
7464,0.0524902,0.0832153,
7466,-0.0805664,0.0835266,
7468,-0.100098,0.0842957,
7470,0.0274658,0.0842896,
7472,-0.0476074,0.0844604,
7474,0.183105,0.0861877,
7476,-0.165405,0.0878357,
7478,0.130615,0.0890686,
7480,-0.078125,0.0897949,
7482,0.206909,0.091687,
7484,0.0152588,0.0912781,
7486,-0.195923,0.0928894,
7488,-0.0622559,0.0934204,
7490,-0.03479,0.0936523,
7492,0.0561523,0.094165,
7494,0.134888,0.095105,
7496,0.0585938,0.0955566,
7498,-0.524902,0.100592,
7500,0.237427,0.10293,
7502,0.24292,0.105182,
7504,-0.0830078,0.105658,
7506,-0.272827,0.108087,
7508,0.114746,0.109088,
7510,0.150146,0.11059,
7512,-0.250854,0.112427,
7514,-0.170898,0.113727,
7516,0.355225,0.116821,
7518,-0.0415039,0.116473,
7520,-0.0909424,0.116669,
7522,0.386353,0.120178,
7524,-0.148926,0.121649,
7526,-0.187988,0.123511,
7528,0.0836182,0.123877,
7530,0.177002,0.125525,
7532,-0.142822,0.126135,
7534,0.0183105,0.1263,
7536,-0.0488281,0.125488,
7538,-0.195313,0.127277,
7540,0.0628662,0.127838,
7542,-0.0012207,0.127216,
7544,0.00366211,0.126599,
7546,0.0518799,0.126532,
7548,-0.229492,0.128668,
7550,-0.00610352,0.127979,
7552,0.0701904,0.12818,
7554,0.0140381,0.127893,
7556,0.0811768,0.128094,
7558,0.465698,0.131372,
7560,-0.292358,0.133209,
7562,-0.187378,0.133154,
7564,0.172729,0.133789,
7566,0.0598145,0.133405,
7568,-0.0683594,0.132739,
7570,-0.0512695,0.132684,
7572,-0.12146,0.132617,
7574,-0.0238037,0.131274,
7576,-0.0762939,0.131036,
7578,0.0616455,0.131464,
7580,0.0360107,0.130865,
7582,0.0769043,0.130487,
7584,-0.0976563,0.130798,
7586,-0.0146484,0.130139,
7588,-0.00610352,0.12854,
7590,0.126343,0.129224,
7592,0.0579834,0.128644,
7594,-0.159302,0.12937,
7596,0.00549316,0.127167,
7598,0.125122,0.128271,
7600,0.224609,0.129639,
7602,-0.269165,0.130804,
7604,-0.10437,0.12901,
7606,0.0390625,0.128845,
7608,0.0109863,0.12843,
7610,0.0476074,0.125153,
7612,-0.136719,0.124884,
7614,-0.0238037,0.121545,
7616,0.100098,0.12215,
7618,-0.0994873,0.120923,
7620,0.175171,0.122064,
7622,0.0671387,0.12049,
7624,-0.136108,0.118091,
7626,0.0463867,0.117737,
7628,0.0457764,0.117615,
7630,0.128174,0.116858,
7632,0,0.115344,
7634,0,0.113367,
7636,0.0396729,0.113275,
7638,-0.0231934,0.110962,
7640,0.241699,0.112836,
7642,0.134277,0.114008,
7644,-0.377808,0.116711,
7646,0.126953,0.117059,
7648,0.0189209,0.11684,
7650,-0.174561,0.117529,
7652,-0.0836182,0.117145,
7654,-0.00183105,0.116223,
7656,-0.0585938,0.116321,
7658,-0.0213623,0.115759,
7660,-0.0750732,0.115308,
7662,-0.00915527,0.114032,
7664,0.0360107,0.113867,
7666,0.0909424,0.113971,
7668,0.0164795,0.113135,
7670,-0.17395,0.1146,
7672,0.0366211,0.11449,
7674,0.0402832,0.113062,
7676,-0.0592041,0.112,
7678,0.0378418,0.111072,
7680,0.127563,0.111566,
7682,-0.0524902,0.110022,
7684,-0.0115967,0.109985,
7686,-0.020752,0.108234,
7688,-0.00305176,0.107642,
7690,0.043335,0.107727,
7692,-0.0830078,0.107996,
7694,0.0457764,0.107104,
7696,-0.00488281,0.106567,
7698,-0.130615,0.102625,
7700,0.101318,0.101263,
7702,-0.0134277,0.0989685,
7704,0.12207,0.0993591,
7706,-0.194092,0.0985718,
7708,0.0311279,0.0977356,
7710,0.0170898,0.096405,
7712,-0.00549316,0.0939514,
7714,0.0622559,0.092865,
7716,-0.119629,0.090509,
7718,0.180054,0.0918945,
7720,-0.134888,0.092334,
7722,-0.0195313,0.0886658,
7724,0.172729,0.0889038,
7726,-0.230103,0.089325,
7728,0.0506592,0.0889954,
7730,-0.0335693,0.087561,
7732,-0.0640869,0.0867737,
7734,-0.0628662,0.0872192,
7736,-0.0726318,0.0874573,
7738,-0.012207,0.0856262,
7740,-0.00427246,0.0850403,
7742,0.0158691,0.0851868,
7744,0.0720215,0.0858704,
7746,0.100098,0.0863525,
7748,-0.0628662,0.0846863,
7750,0.0653076,0.0852783,
7752,-0.0396729,0.0849731,
7754,0.0750732,0.0855835,
7756,0.103149,0.0858032,
7758,-0.00488281,0.0811951,
7760,-0.203247,0.080304,
7762,0.0769043,0.0791992,
7764,-0.0164795,0.0776367,
7766,-0.00610352,0.0770996,
7768,-0.00305176,0.0764465,
7770,-0.0604248,0.0765381,
7772,0.0195313,0.0755188,
7774,-0.0469971,0.0757507,
7776,-0.0292969,0.0752808,
7778,0.0390625,0.0750549,
7780,0.00976563,0.0747925,
7782,-0.0115967,0.0741394,
7784,0.0909424,0.0740723,
7786,-0.107422,0.075,
7788,0.0848389,0.0757874,
7790,-0.0610352,0.0751343,
7792,0.0292969,0.0748474,
7794,-0.0610352,0.0738647,
7796,-0.0183105,0.0739929,
7798,-0.045166,0.0731934,
7800,0.0634766,0.071582,
7802,-0.0958252,0.0698486,
7804,-0.0250244,0.0690552,
7806,-0.0238037,0.0689026,
7808,0.0640869,0.0694336,
7810,-0.0732422,0.0696899,
7812,-0.0683594,0.0690063,
7814,0.0262451,0.0690308,
7816,-0.0805664,0.0688354,
7818,-0.0158691,0.0679993,
7820,-0.010376,0.0663513,
7822,0.012207,0.065802,
7824,0.0469971,0.0649109,
7826,-0.0469971,0.064917,
7828,-0.090332,0.0653625,
7830,0.0506592,0.0645874,
7832,0.0390625,0.064978,
7834,-0.0622559,0.0656006,
7836,-0.00549316,0.0652588,
7838,-0.0305176,0.065332,
7840,0.0115967,0.063031,
7842,-0.0543213,0.0622314,
7844,0.00732422,0.0585266,
7846,-0.00427246,0.0572998,
7848,-0.0292969,0.0574036,
7850,-0.0128174,0.0557861,
7852,0.00183105,0.0549683,
7854,-0.0402832,0.0553528,
7856,-0.00854492,0.0548523,
7858,0.00610352,0.0546997,
7860,-0.0152588,0.0541016,
7862,-0.0390625,0.0544006,
7864,0.012207,0.0541626,
7866,-0.022583,0.053479,
7868,0.180054,0.0551147,
7870,-0.0561523,0.0539368,
7872,-0.100098,0.0545715,
7874,0.0482178,0.0546509,
7876,0.0250244,0.0543091,
7878,-0.0280762,0.0542114,
7880,-0.0775146,0.0537109,
7882,-0.0317383,0.0535034,
7884,-0.0170898,0.0535583,
7886,-0.0561523,0.0539124,
7888,-0.0646973,0.0545288,
7890,-0.00976563,0.0541931,
7892,0.0939941,0.054303,
7894,-0.0549316,0.0543945,
7896,-0.0335693,0.0546814,
7898,0.00854492,0.0534607,
7900,0.000610352,0.0524536,
7902,0.078125,0.0531006,
7904,-0.0415039,0.0522949,
7906,-0.0421143,0.0507751,
7908,0.0152588,0.0506165,
7910,-0.00549316,0.0505005,
7912,-0.0109863,0.0505554,
7914,-0.0152588,0.0500854,
7916,-0.0158691,0.0490479,
7918,0.0152588,0.0473999,
7920,-0.0268555,0.0463196,
7922,-0.00610352,0.0461853,
7924,0.00732422,0.0445312,
7926,-0.00427246,0.0422729,
7928,0.00183105,0.0417847,
7930,0.0012207,0.0414612,
7932,-0.0012207,0.0408325,
7934,-0.00549316,0.0402588,
7936,0.012207,0.0396545,
7938,0.00244141,0.0395569,
7940,-0.00671387,0.0395813,
7942,0.00976563,0.0395203,
7944,-0.00488281,0.0388489,
7946,-0.00915527,0.0379395,
7948,-0.00549316,0.0373657,
7950,0.0317383,0.03703,
7952,-0.00305176,0.0366638,
7954,-0.00793457,0.0359924,
7956,0.0140381,0.0351013,
7958,0.0238037,0.0352905,
7960,0.00976563,0.0333557,
7962,0.00793457,0.032666,
7964,0.0286865,0.0327881,
7966,-0.00366211,0.0327637,
7968,0.00793457,0.0328125,
7970,0.00244141,0.0322327,
7972,-0.00366211,0.032074,
7974,0.00183105,0.0316223,
7976,0.00244141,0.0313538,
7978,0.000610352,0.0309692,
7980,-0.00183105,0.0308899,
7982,0,0.0307739,
7984,0.00732422,0.0299377,
7986,0.00732422,0.0289368,
7988,0.0012207,0.0281006,
7990,0.00183105,0.0275085,
7992,0.000610352,0.0272217,
7994,-0.0012207,0.0266235,
7996,0.00549316,0.0264954,
7998,-0.00427246,0.0260864,
8000,-0.00305176,0.0254822,
8002,0.00427246,0.0245667,
8004,0.00915527,0.024408,
8006,-0.00427246,0.0242126,
8008,-0.00488281,0.0236206,
8010,0.00244141,0.0229126,
8012,0,0.022229,
8014,-0.0115967,0.0220825,
8016,0.00976563,0.0213745,
8018,0.00183105,0.0212341,
8020,0.045166,0.021582,
8022,-0.0286865,0.0217468,
8024,-0.0152588,0.0214294,
8026,0.010376,0.0210632,
8028,0.0219727,0.0203796,
8030,0.0274658,0.0201477,
8032,0.00305176,0.0197876,
8034,0.00732422,0.0192383,
8036,-0.0244141,0.0194275,
8038,0.0445557,0.0195679,
8040,0.0396729,0.0198486,
8042,-0.010376,0.0194092,
8044,-0.0189209,0.0195251,
8046,-0.0152588,0.019635,
8048,0.00305176,0.0193726,
8050,-0.022583,0.0194702,
8052,-0.0164795,0.0196167,
8054,-0.0158691,0.0193726,
8056,-0.0183105,0.0194702,
8058,-0.00488281,0.019458,
8060,-0.00427246,0.0193481,
8062,-0.0012207,0.0189697,
8064,0.00732422,0.0189209,
8066,-0.00183105,0.0187134,
8068,0.0134277,0.0170471,
8070,0.0152588,0.0166382,
8072,-0.00305176,0.0156677,
8074,0.0012207,0.0151978,
8076,0.00488281,0.0149963,
8078,0.0177002,0.0148926,
8080,-0.00488281,0.0141663,
8082,-0.0128174,0.0139771,
8084,0.00732422,0.0138794,
8086,-0.00488281,0.0133667,
8088,-0.00366211,0.0127563,
8090,-0.00366211,0.0126953,
8092,0.00549316,0.0118103,
8094,0.0250244,0.0115112,
8096,0.0360107,0.0115356,
8098,-0.00793457,0.0115295,
8100,-0.0134277,0.0116577,
8102,0.0146484,0.0110229,
8104,-0.012207,0.01073,
8106,0.0256348,0.0105652,
8108,-0.0189209,0.0106018,
8110,-0.0292969,0.0108398,
8112,-0.0152588,0.0108826,
8114,0.00671387,0.0107971,
8116,-0.00671387,0.0107056,
8118,0.0183105,0.0107361,
8120,0.00793457,0.0105469,
8122,-0.00610352,0.0105469,
8124,0.012207,0.0105957,
8126,-0.00183105,0.0105713,
8128,0.00427246,0.0105957,
8130,0.00366211,0.0106201,
8132,-0.00366211,0.0106445,
8134,0.00183105,0.0106079,
8136,0.00305176,0.0105164,
8138,0.0109863,0.0106018,
8140,0.0213623,0.0107483,
8142,-0.00244141,0.010675,
8144,-0.0115967,0.0107422,
8146,0.0170898,0.0108215,
8148,0.0164795,0.0109314,
8150,-0.00610352,0.010675,
8152,0.00244141,0.0106689,
8154,-0.00549316,0.0106445,
8156,-0.00610352,0.0105652,
8158,0.0012207,0.0103394,
8160,-0.00671387,0.0103088,
8162,-0.00488281,0.0102783,
8164,0.0115967,0.0101074,
8166,-0.00183105,0.0100891,
8168,0.00915527,0.0101013,
8170,0.0012207,0.0100891,
8172,-0.00793457,0.0101318,
8174,0.00183105,0.0101318,
8176,0.00976563,0.0102051,
8178,0.00671387,0.0102661,
8180,0.000610352,0.0102539,
8182,0.00366211,0.0102905,
8184,-0.00427246,0.01026,
8186,-0.00976563,0.0102844,
8188,0.0317383,0.0105896,
8190,-0.012207,0.0106934,
8192,-0.00305176,0.0107178,
8194,0.00854492,0.010791,
8196,-0.00732422,0.0108093,
8198,0.0189209,0.0109558,
8200,0.00610352,0.0109863,
8202,-0.0244141,0.0111877,
8204,0.012207,0.0112183,
8206,0.00549316,0.0112305,
8208,-0.0012207,0.0111938,
8210,-0.00244141,0.0111938,
8212,-0.00671387,0.011261,
8214,-0.00549316,0.0112,
8216,0.00671387,0.0111694,
8218,0.00854492,0.0112366,
8220,0.00610352,0.0108459,
8222,0,0.0105591,
8224,0.00427246,0.0104492,
8226,0.00732422,0.0104187,
8228,0.00305176,0.0102295,
8230,0.0250244,0.0102051,
8232,0.0177002,0.0103516,
8234,0.00732422,0.0103516,
8236,-0.0134277,0.0102417,
8238,-0.00244141,0.00982056,
8240,0.0183105,0.00960693,
8242,0.0109863,0.00961304,
8244,-0.0146484,0.00957031,
8246,-0.00732422,0.00949097,
8248,-0.00488281,0.00950928,
8250,-0.00183105,0.00930176,
8252,0.00305176,0.00916748,
8254,0.0158691,0.00916748,
8256,0.00915527,0.00907593,
8258,-0.0201416,0.00922852,
8260,0.00793457,0.00926514,
8262,0.00610352,0.00931396,
8264,0.00793457,0.00932007,
8266,-0.00793457,0.0093811,
8268,-0.00549316,0.00930176,
8270,0.00671387,0.00921631,
8272,0.00732422,0.00925903,
8274,0.0201416,0.00944824,
8276,-0.00854492,0.00948486,
8278,0.00793457,0.00938721,
8280,0.0341797,0.00968018,
8282,-0.00244141,0.00957642,
8284,0.010376,0.00960693,
8286,-0.0109863,0.00966797,
8288,-0.0170898,0.00980225,
8290,0.00610352,0.00982666,
8292,-0.000610352,0.00977783,
8294,-0.0152588,0.00968018,
8296,-0.0158691,0.00947876,
8298,0.0012207,0.00941162,
8300,-0.00610352,0.00933838,
8302,-0.010376,0.00929565,
8304,0.0128174,0.00930176,
8306,0.00366211,0.00908203,
8308,0.00671387,0.00895996,
8310,-0.00183105,0.0086853,
8312,-0.0195313,0.00872803,
8314,0.00976563,0.00875854,
8316,0.00183105,0.00870972,
8318,0.00305176,0.00855713,
8320,-0.00793457,0.00855713,
8322,-0.00488281,0.00854492,
8324,0.00427246,0.00846558,
8326,0.0012207,0.00845947,
8328,0.00305176,0.00844727,
8330,0.00671387,0.00847778,
8332,0,0.00844116,
8334,-0.00366211,0.00845947,
8336,0.0012207,0.00844116,
8338,-0.00549316,0.00838623,
8340,0.00183105,0.00819092,
8342,0.00671387,0.00823364,
8344,-0.00976563,0.00821533,
8346,0.00610352,0.00810547,
8348,0.00305176,0.00797119,
8350,0.00854492,0.00799561,
8352,0.00976563,0.00806885,
8354,0.00671387,0.00808105,
8356,0.0115967,0.00813599,
8358,0,0.00812378,
8360,-0.0164795,0.00822144,
8362,0.020752,0.00838013,
8364,-0.00305176,0.00829468,
8366,-0.010376,0.00838013,
8368,-0.00244141,0.00831299,
8370,0.00366211,0.0083374,
8372,-0.00793457,0.0083374,
8374,0.00915527,0.00841064,
8376,0.00732422,0.00838623,
8378,0.00183105,0.0083374,
8380,0.0115967,0.00844727,
8382,0.00244141,0.00843506,
8384,0.00732422,0.00846558,
8386,0.00793457,0.00844727,
8388,-0.00305176,0.0081604,
8390,-0.010376,0.00814209,
8392,0.00366211,0.00814819,
8394,-0.00549316,0.00811768,
8396,-0.0140381,0.00818481,
8398,-0.00427246,0.00803833,
8400,-0.00854492,0.00806274,
8402,-0.00366211,0.00785522,
8404,0.00244141,0.00775757,
8406,-0.00427246,0.00774536,
8408,-0.00427246,0.00777588,
8410,0.00183105,0.00776978,
8412,0.00183105,0.00772095,
8414,0.00244141,0.00769043,
8416,-0.00793457,0.00770264,
8418,0.00427246,0.00765991,
8420,0.00732422,0.00767212,
8422,-0.0158691,0.00783081,
8424,0.00732422,0.00786133,
8426,-0.00488281,0.00783691,
8428,-0.00610352,0.00786743,
8430,0,0.00761719,
8432,-0.0146484,0.00758667,
8434,-0.00671387,0.00758057,
8436,-0.0012207,0.0074585,
8438,-0.00976563,0.00753174,
8440,-0.00183105,0.00736694,
8442,-0.00244141,0.00728149,
8444,-0.00366211,0.00717163,
8446,0.00305176,0.00712891,
8448,0.0146484,0.00722656,
8450,-0.0195313,0.00740356,
8452,-0.00183105,0.00739136,
8454,0.0109863,0.00734253,
8456,0.00732422,0.00732422,
8458,-0.0195313,0.00731812,
8460,-0.00854492,0.00732422,
8462,0.00427246,0.00730591,
8464,-0.00793457,0.00730591,
8466,-0.00427246,0.00726929,
8468,-0.00610352,0.00727539,
8470,0.00549316,0.00726318,
8472,-0.00549316,0.00724487,
8474,-0.000610352,0.00704956,
8476,0.010376,0.00706787,
8478,-0.00366211,0.00702515,
8480,0.00915527,0.0067749,
8482,-0.00671387,0.00681763,
8484,-0.00366211,0.00675049,
8486,0.00183105,0.00665894,
8488,-0.00488281,0.00653687,
8490,-0.00183105,0.00649414,
8492,-0.0177002,0.00666504,
8494,0.0012207,0.00652466,
8496,-0.00244141,0.00639038,
8498,-0.00427246,0.0064209,
