Alejandra-A-Musc-ABC-L01
Gráfico creado el:2026-06-03 15:19:29.338
Registro en:2026-06-03 15:33:37.326
2 mseg/muestras
2 canales
EMG
mV
EMG Integrado
mV-sec
milliSec,CH1,CH40,
,227112 samples,227112 samples,
0,0.0128174,0.000128174,
2,0.0158691,0.000286865,
4,-0.055542,0.000842285,
6,0.00183105,0.000860596,
8,0.00854492,0.000946045,
10,-0.00732422,0.00101929,
12,-0.0158691,0.00117798,
14,-0.0177002,0.00135498,
16,-0.00366211,0.0013916,
18,0.0280762,0.00167236,
20,-0.00915527,0.00176392,
22,-0.0219727,0.00198364,
24,0.0280762,0.0022644,
26,0.0140381,0.00240479,
28,-0.0469971,0.00287476,
30,-0.012207,0.00299683,
32,-0.00732422,0.00307007,
34,-0.0268555,0.00333862,
36,-0.0268555,0.00360718,
38,-0.0201416,0.00380859,
40,-0.0183105,0.0039917,
42,-0.00610352,0.00405273,
44,-0.00427246,0.00409546,
46,-0.00366211,0.00413208,
48,-0.0109863,0.00424194,
50,-0.00305176,0.00427246,
52,-0.00427246,0.00431519,
54,0.0164795,0.00447998,
56,0.0189209,0.00466919,
58,-0.0518799,0.00518799,
60,0.0128174,0.00531616,
62,0.012207,0.00543823,
64,-0.0158691,0.00559692,
66,-0.00366211,0.00563354,
68,0.0012207,0.00564575,
70,0.00549316,0.00570068,
72,-0.0134277,0.00583496,
74,-0.0134277,0.00596924,
76,-0.00915527,0.00606079,
78,0.00183105,0.0060791,
80,-0.00854492,0.00616455,
82,-0.0109863,0.00627441,
84,-0.0146484,0.0064209,
86,0.0152588,0.00657349,
88,0.0012207,0.00658569,
90,-0.0402832,0.00698853,
92,0.0158691,0.00714722,
94,0.012207,0.00726929,
96,-0.00793457,0.00734863,
98,-0.00915527,0.00744019,
100,-0.00305176,0.0074707,
102,-0.00610352,0.00753174,
104,-0.0109863,0.0076416,
106,0.00488281,0.00769043,
108,0.022583,0.00791626,
110,0.0372314,0.00828857,
112,-0.0592041,0.00888062,
114,-0.0177002,0.00905762,
116,0.022583,0.00928345,
118,-0.00671387,0.00935059,
120,-0.0262451,0.00961304,
122,-0.020752,0.00982056,
124,-0.0140381,0.00996094,
126,0.000610352,0.00996704,
128,-0.0268555,0.0102356,
130,0.0140381,0.010376,
132,0.00854492,0.0104614,
134,-0.0146484,0.0106079,
136,-0.00488281,0.0106567,
138,-0.00610352,0.0107178,
140,-0.0146484,0.0108643,
142,0.00366211,0.0109009,
144,-0.00183105,0.0109192,
146,-0.00793457,0.0109985,
148,-0.00244141,0.0110229,
150,0.0256348,0.0112793,
152,0.00183105,0.0112976,
154,0.0231934,0.0115295,
156,-0.0213623,0.0117432,
158,0.00427246,0.0117859,
160,0.0158691,0.0119446,
162,-0.0183105,0.0121277,
164,-0.0274658,0.0124023,
166,0.000610352,0.0124084,
168,-0.0299072,0.0127075,
170,-0.0152588,0.0128601,
172,-0.00793457,0.0129395,
174,-0.0128174,0.0130676,
176,-0.00610352,0.0131287,
178,-0.00244141,0.0131531,
180,-0.012207,0.0132751,
182,-0.00183105,0.0132935,
184,-0.00671387,0.0133606,
186,-0.00183105,0.0133789,
188,-0.00671387,0.013446,
190,-0.00732422,0.0135193,
192,0.00427246,0.013562,
194,-0.00671387,0.0136292,
196,-0.0177002,0.0138062,
198,0.0115967,0.0139221,
200,-0.0164795,0.0139587,
202,0.00244141,0.0138245,
204,0.0128174,0.0133972,
206,-0.03479,0.0137268,
208,-0.0134277,0.0137756,
210,0.0183105,0.0138855,
212,-0.0262451,0.0139893,
214,-0.00183105,0.0138306,
216,0.00549316,0.0138489,
218,-0.0286865,0.013855,
220,0.000610352,0.0137695,
222,0.00244141,0.0135742,
224,-0.0195313,0.0134888,
226,0.00183105,0.0133667,
228,0.00549316,0.0129517,
230,-0.00366211,0.0128662,
232,-0.0109863,0.0129028,
234,0.00183105,0.0126526,
236,-0.0128174,0.0125122,
238,0.000610352,0.0123169,
240,0.0280762,0.0124146,
242,-0.00549316,0.0124084,
244,0.0128174,0.0124939,
246,-0.0421143,0.0128784,
248,-0.00671387,0.0128357,
250,0.0366211,0.0131714,
252,-0.0402832,0.0135315,
254,-0.0189209,0.0135559,
256,-0.0219727,0.0135864,
258,-0.0219727,0.0132874,
260,-0.0140381,0.0132996,
262,-0.0115967,0.0132935,
264,-0.00976563,0.0132324,
266,-0.00244141,0.0132202,
268,-0.00366211,0.0132446,
270,0.00366211,0.0132263,
272,0.0115967,0.013208,
274,0.0177002,0.0132507,
276,0.0012207,0.0131714,
278,-0.0140381,0.0132935,
280,0.0134277,0.0133423,
282,0.0201416,0.0134338,
284,0.00854492,0.0133728,
286,0.00793457,0.0132996,
288,0.0262451,0.0135498,
290,0.000610352,0.0131531,
292,-0.0219727,0.0132141,
294,0.00549316,0.013147,
296,0.00793457,0.013147,
298,-0.00366211,0.013092,
300,0.00183105,0.0130798,
302,-0.020752,0.0132263,
304,-0.043335,0.0135498,
306,0.012207,0.013623,
308,-0.0012207,0.0134094,
310,-0.00610352,0.0130981,
312,0.012207,0.0126282,
314,-0.0402832,0.012854,
316,-0.00549316,0.0126831,
318,-0.000610352,0.0126221,
320,-0.00488281,0.0124084,
322,-0.00732422,0.0122742,
324,-0.0128174,0.012262,
326,-0.00488281,0.0123047,
328,0,0.0120361,
330,0.0299072,0.0121948,
332,0.0408936,0.0125183,
334,-0.020752,0.0125793,
336,-0.0250244,0.0127808,
338,0.0512695,0.0132324,
340,0.00976563,0.0131836,
342,-0.0585938,0.0137329,
344,-0.00427246,0.0137573,
346,-0.0231934,0.0139099,
348,-0.0238037,0.0141235,
350,-0.0146484,0.0140137,
352,-0.0274658,0.01427,
354,-0.0146484,0.0141846,
356,0.0189209,0.0141602,
358,0.0195313,0.0143127,
360,-0.0628662,0.0147827,
362,0.0134277,0.0147339,
364,-0.00488281,0.0145081,
366,-0.0134277,0.0146362,
368,0.00427246,0.0143799,
370,-0.00671387,0.0142944,
372,-0.0323486,0.0145386,
374,0.0189209,0.0145996,
376,0.0708008,0.0152466,
378,0.00244141,0.0152466,
380,-0.067749,0.015802,
382,0.0250244,0.0160339,
384,0.0195313,0.0161621,
386,0.00793457,0.0162231,
388,-0.00671387,0.0162231,
390,-0.0726318,0.0168762,
392,0.0012207,0.0168457,
394,0.0158691,0.0169373,
396,0.0164795,0.016925,
398,-0.0378418,0.0171875,
400,-0.0115967,0.0171387,
402,0.0262451,0.0173767,
404,-0.00366211,0.0172852,
406,-0.0115967,0.0170532,
408,-0.020752,0.0171265,
410,-0.00732422,0.0170166,
412,-0.010376,0.0168579,
414,-0.00671387,0.0169067,
416,0.0219727,0.0170715,
418,0.00305176,0.0168152,
420,0.00488281,0.0168579,
422,0.0213623,0.0170471,
424,0.000610352,0.0168579,
426,-0.0335693,0.0171753,
428,0.0146484,0.0172668,
430,-0.0109863,0.0173401,
432,-0.0183105,0.0174133,
434,-0.0311279,0.0177063,
436,-0.0170898,0.017749,
438,-0.0115967,0.0178589,
440,0.0012207,0.0175903,
442,-0.0012207,0.0175476,
444,0.00183105,0.0174377,
446,0.0366211,0.0173828,
448,0.0158691,0.0174744,
450,-0.0109863,0.017218,
452,-0.0115967,0.0169312,
454,0.00244141,0.0167664,
456,0.0335693,0.0168823,
458,0.0164795,0.0168274,
460,-0.0622559,0.0173096,
462,-0.010376,0.0172974,
464,0.00549316,0.0172546,
466,0.00305176,0.0172607,
468,-0.0140381,0.0173645,
470,-0.0109863,0.0174377,
472,-0.00915527,0.0174133,
474,-0.00427246,0.0172791,
476,0.00976563,0.0173645,
478,0.00183105,0.0172424,
480,0.00671387,0.0171753,
482,0.0415039,0.0173889,
484,0.0518799,0.0178223,
486,-0.065918,0.0184021,
488,-0.012207,0.0182617,
490,0.0311279,0.0185669,
492,0.0164795,0.018512,
494,-0.0128174,0.0185852,
496,-0.0378418,0.0188843,
498,-0.032959,0.0191772,
500,-0.00366211,0.0191956,
502,0.0567627,0.0195557,
504,0.0622559,0.0197449,
506,-0.100708,0.0206299,
508,0.00610352,0.0206787,
510,0.020752,0.0208252,
512,-0.00427246,0.0207458,
514,-0.0238037,0.0205811,
516,-0.0280762,0.0208069,
518,-0.0292969,0.0210938,
520,-0.00976563,0.0211426,
522,-0.00244141,0.0210938,
524,0.0128174,0.0210938,
526,-0.0195313,0.0212402,
528,0,0.0212402,
530,0.010376,0.0210449,
532,0.00854492,0.0207214,
534,-0.0317383,0.0208313,
536,-0.00244141,0.0206055,
538,-0.00732422,0.020166,
540,-0.00244141,0.0200928,
542,0.0341797,0.0198486,
544,0.0146484,0.0199524,
546,-0.057373,0.0202942,
548,0.0109863,0.020166,
550,0.0164795,0.0201843,
552,-0.00427246,0.0199524,
554,-0.0183105,0.019989,
556,-0.0158691,0.0199585,
558,-0.0183105,0.0199463,
560,0.000610352,0.0193237,
562,0.0256348,0.0194458,
564,-0.0115967,0.0195129,
566,-0.012207,0.0195007,
568,0.0109863,0.0195679,
570,0.00915527,0.0195923,
572,-0.00305176,0.0192993,
574,-0.0109863,0.01922,
576,-0.010376,0.0186157,
578,0.000610352,0.0185974,
580,0.00793457,0.0179993,
582,0.00244141,0.0177734,
584,-0.0177002,0.0177551,
586,-0.00305176,0.0177063,
588,0.0402832,0.018042,
590,0.0268555,0.0175842,
592,-0.0848389,0.0184204,
594,0.0323486,0.0185852,
596,0.00671387,0.0184875,
598,-0.0323486,0.0184326,
600,-0.00610352,0.0183777,
602,-0.0158691,0.0182739,
604,-0.0170898,0.0184082,
606,-0.0115967,0.0184082,
608,-0.022583,0.0184265,
610,-0.00671387,0.0184204,
612,0.00854492,0.0184021,
614,0.0238037,0.018573,
616,-0.0292969,0.0186462,
618,-0.0286865,0.0189026,
620,0.00915527,0.0189453,
622,-0.00305176,0.0187622,
624,-0.010376,0.0188599,
626,-0.012207,0.0186462,
628,-0.0384521,0.0188843,
630,-0.012207,0.0188965,
632,0.010376,0.0188171,
634,-0.00366211,0.0185425,
636,-0.0152588,0.0185242,
638,-0.00732422,0.0184814,
640,0.0219727,0.018689,
642,0.0280762,0.0189575,
644,-0.055542,0.0194946,
646,0.0140381,0.0192688,
648,0.0177002,0.0192871,
650,0.00366211,0.0192139,
652,-0.03479,0.0194458,
654,-0.010376,0.0195251,
656,-0.0012207,0.0192017,
658,-0.00915527,0.0191284,
660,-0.00976563,0.0186035,
662,-0.00732422,0.018573,
664,-0.0231934,0.01875,
666,0.0158691,0.0188782,
668,0.0323486,0.0190613,
670,-0.00305176,0.0189819,
672,0.0201416,0.0190918,
674,-0.0439453,0.0194885,
676,0.0189209,0.0195801,
678,-0.00305176,0.0195923,
680,-0.010376,0.0196289,
682,-0.0244141,0.019458,
684,-0.0354004,0.0192932,
686,-0.00183105,0.0186523,
688,0.00549316,0.0185852,
690,-0.00793457,0.0183533,
692,-0.00610352,0.0182495,
694,0.00915527,0.0182129,
696,0,0.0178345,
698,-0.00488281,0.0175537,
700,-0.00488281,0.0175659,
702,-0.00366211,0.0170349,
704,-0.0140381,0.0165527,
706,-0.00488281,0.0155945,
708,0.0164795,0.0156982,
710,-0.0256348,0.0157471,
712,-0.00549316,0.0157593,
714,-0.0109863,0.0156311,
716,-0.00183105,0.0153687,
718,-0.0183105,0.0152588,
720,0.000610352,0.0151672,
722,0.00244141,0.0151672,
724,-0.0268555,0.0153076,
726,0.0402832,0.0155151,
728,-0.0372314,0.0158875,
730,-0.0177002,0.0159607,
732,0.0177002,0.0160522,
734,-0.00610352,0.0157959,
736,-0.022583,0.0159973,
738,0.000610352,0.0159302,
740,0.00671387,0.0159729,
742,-0.0476074,0.0161072,
744,0.0354004,0.0163147,
746,0.00244141,0.0157654,
748,-0.012207,0.0157776,
750,0.0012207,0.015625,
752,0.00915527,0.0156738,
754,-0.0158691,0.0156494,
756,-0.00793457,0.0155701,
758,0.0256348,0.0156433,
760,0.0720215,0.0163574,
762,-0.0878906,0.01698,
764,-0.00854492,0.0169495,
766,0.0372314,0.0171997,
768,0.0286865,0.0173767,
770,-0.020752,0.0174927,
772,-0.0482178,0.0179443,
774,-0.00244141,0.0178589,
776,-0.0164795,0.0179199,
778,-0.0115967,0.0180298,
780,-0.00671387,0.0180176,
782,0.000610352,0.0179993,
784,-0.0158691,0.017981,
786,-0.00366211,0.0179871,
788,0.00427246,0.017627,
790,-0.00366211,0.017395,
792,0.00610352,0.0166077,
794,-0.00793457,0.0163635,
796,-0.00427246,0.0163391,
798,-0.000610352,0.0160217,
800,0.00427246,0.0160034,
802,0.00305176,0.0158752,
804,0.03479,0.0160522,
806,0.0445557,0.0163818,
808,-0.0817871,0.0169739,
810,0.0213623,0.0171204,
812,-0.0012207,0.0170471,
814,-0.0238037,0.0170471,
816,-0.0213623,0.0169678,
818,-0.0256348,0.0169373,
820,-0.0335693,0.0171814,
822,0.00305176,0.0171814,
824,0.0305176,0.0173828,
826,-0.0628662,0.0178894,
828,0.0140381,0.0176453,
830,0.0109863,0.0176331,
832,0.00366211,0.0175659,
834,-0.0164795,0.0176941,
836,-0.010376,0.0176453,
838,-0.0109863,0.0176819,
840,-0.012207,0.0175842,
842,0.0164795,0.0174683,
844,-0.000610352,0.0169189,
846,-0.0183105,0.0169617,
848,0.00427246,0.0168274,
850,0.00549316,0.0168457,
852,-0.00671387,0.0165649,
854,-0.0115967,0.0165771,
856,-0.00549316,0.0166199,
858,-0.00854492,0.0166138,
860,-0.00488281,0.0165649,
862,0,0.0164917,
864,-0.0152588,0.0164124,
866,-0.00183105,0.016272,
868,-0.0012207,0.0159607,
870,0.000610352,0.0159363,
872,-0.00976563,0.0158325,
874,-0.00671387,0.0154602,
876,0.020752,0.0154785,
878,-0.0201416,0.0156494,
880,-0.0177002,0.0157227,
882,0.020752,0.015686,
884,-0.0158691,0.0154907,
886,-0.012207,0.0155945,
888,-0.00183105,0.0155579,
890,-0.043335,0.0159119,
892,-0.00549316,0.0159058,
894,-0.0146484,0.0159607,
896,-0.0115967,0.0160767,
898,-0.0152588,0.0161804,
900,-0.00610352,0.0161926,
902,-0.0164795,0.0163208,
904,0.0012207,0.0161926,
906,-0.00854492,0.0162292,
908,-0.0140381,0.0162048,
910,-0.00427246,0.0159912,
912,-0.012207,0.0160583,
914,-0.0140381,0.0160889,
916,-0.010376,0.0161743,
918,-0.00915527,0.0160828,
920,0.00488281,0.0161255,
922,0.0256348,0.0163574,
924,-0.0592041,0.0166809,
926,-0.0012207,0.0162903,
928,0.0115967,0.0160339,
930,0.00732422,0.0159302,
932,-0.0146484,0.0158997,
934,-0.0299072,0.0161377,
936,-0.00427246,0.0159546,
938,-0.00549316,0.0160034,
940,0.00183105,0.0159546,
942,-0.00793457,0.0155579,
944,-0.0189209,0.0153931,
946,-0.00549316,0.0154236,
948,-0.00732422,0.0153748,
950,-0.0128174,0.0154907,
952,-0.00976563,0.0154968,
954,-0.00732422,0.0154114,
956,-0.0115967,0.015448,
958,0.0238037,0.0154297,
960,0.00366211,0.0147461,
962,-0.0689697,0.0145569,
964,0.0201416,0.0146729,
966,0.0262451,0.014563,
968,-0.0378418,0.0146545,
970,-0.0366211,0.0148132,
972,-0.0158691,0.0144897,
974,0.00366211,0.014502,
976,-0.0286865,0.014624,
978,-0.0390625,0.0148987,
980,0.00183105,0.0148499,
982,0.00183105,0.0148621,
984,-0.0146484,0.0148499,
986,0.0360107,0.0151733,
988,0.0958252,0.0160889,
990,-0.133057,0.0173828,
992,0.0317383,0.0176392,
994,0.000610352,0.0175659,
996,-0.00305176,0.0175537,
998,-0.0323486,0.0178711,
1000,-0.0439453,0.0182678,
1002,-0.0537109,0.0187744,
1004,-0.0427246,0.0188538,
1006,-0.0274658,0.0186829,
1008,-0.0177002,0.018042,
1010,-0.0128174,0.0179565,
1012,0.0109863,0.0180542,
1014,-0.0244141,0.0180603,
1016,-0.0115967,0.0179626,
1018,0.00854492,0.0177917,
1020,0.00244141,0.0174805,
1022,-0.00732422,0.0175232,
1024,0.010376,0.0173218,
1026,-0.0140381,0.0168335,
1028,-0.0366211,0.0170593,
1030,0.0244141,0.0171936,
1032,-0.010376,0.0172607,
1034,-0.0292969,0.0173889,
1036,-0.0109863,0.017395,
1038,-0.010376,0.0173889,
1040,-0.0140381,0.0174072,
1042,-0.0189209,0.0174316,
1044,-0.00854492,0.017511,
1046,0.0195313,0.0175232,
1048,0.0152588,0.0176331,
1050,-0.0390625,0.0179688,
1052,0.00976563,0.0179993,
1054,0.0213623,0.0180969,
1056,0.010376,0.0181458,
1058,-0.00915527,0.0181519,
1060,-0.0415039,0.0185181,
1062,0.0231934,0.01875,
1064,0.0189209,0.0187866,
1066,-0.0158691,0.018927,
1068,-0.00854492,0.0190002,
1070,-0.0323486,0.0193176,
1072,0.00488281,0.0192688,
1074,-0.00610352,0.0192627,
1076,0.0109863,0.019165,
1078,-0.0311279,0.0192749,
1080,-0.0268555,0.0193665,
1082,0.00793457,0.0192383,
1084,-0.00427246,0.0191223,
1086,0.0183105,0.0191833,
1088,0.0335693,0.0195007,
1090,-0.0476074,0.0195435,
1092,0.0158691,0.0196472,
1094,-0.00427246,0.0195435,
1096,-0.00671387,0.0194946,
1098,0.00488281,0.0193909,
1100,-0.00976563,0.0194275,
1102,-0.0256348,0.019519,
1104,0.032959,0.0198364,
1106,0.0421143,0.0201721,
1108,-0.0872803,0.0209045,
1110,-0.00366211,0.0208984,
1112,0.0268555,0.0210449,
1114,-0.00610352,0.0209656,
1116,-0.022583,0.0210876,
1118,-0.0360107,0.0213562,
1120,-0.0213623,0.021521,
1122,-0.0146484,0.0214111,
1124,-0.00244141,0.0208435,
1126,0.00183105,0.0208496,
1128,0.00305176,0.0207642,
1130,0.00366211,0.0207275,
1132,0.00244141,0.0206055,
1134,0.0012207,0.0203186,
1136,0.0128174,0.0204041,
1138,0.0146484,0.0204956,
1140,-0.0354004,0.0208313,
1142,0.00976563,0.0208496,
1144,0.010376,0.0207642,
1146,-0.00610352,0.0207703,
1148,-0.0152588,0.0208496,
1150,-0.00915527,0.020813,
1152,-0.00915527,0.0208069,
1154,-0.0128174,0.0208618,
1156,-0.0152588,0.0208984,
1158,0.00366211,0.020697,
1160,0.0219727,0.0208801,
1162,-0.0146484,0.0203369,
1164,-0.0286865,0.0204224,
1166,0.00671387,0.0202271,
1168,0.00183105,0.0198669,
1170,-0.00671387,0.0195679,
1172,-0.0115967,0.0195251,
1174,-0.00427246,0.0195313,
1176,-0.00183105,0.0192627,
1178,-0.0134277,0.0190063,
1180,0.0323486,0.0193115,
1182,-0.0305176,0.0195984,
1184,-0.0134277,0.0195862,
1186,0.00671387,0.0192932,
1188,0.0115967,0.0184509,
1190,0.0238037,0.0173584,
1192,-0.0543213,0.0175842,
1194,0.0012207,0.0175903,
1196,0.0170898,0.0177307,
1198,-0.0158691,0.0175659,
1200,-0.0177002,0.0173035,
1202,-0.00183105,0.0167847,
1204,-0.0183105,0.0165405,
1206,-0.0170898,0.0164368,
1208,-0.00427246,0.0163025,
1210,-0.0128174,0.0163025,
1212,-0.0128174,0.0163208,
1214,0.00427246,0.0161194,
1216,0.0183105,0.0161865,
1218,0.0231934,0.016333,
1220,-0.0201416,0.01651,
1222,-0.0140381,0.0165771,
1224,0.032959,0.016803,
1226,0.0305176,0.0169678,
1228,-0.0195313,0.0167969,
1230,-0.0250244,0.016803,
1232,0.00610352,0.0167603,
1234,-0.012207,0.0165894,
1236,-0.0012207,0.0164917,
1238,-0.00793457,0.0164673,
1240,-0.032959,0.0166565,
1242,-0.0128174,0.0165955,
1244,0.00732422,0.0165833,
1246,-0.000610352,0.016394,
1248,-0.0158691,0.0164001,
1250,0.0231934,0.0162415,
1252,0.00305176,0.0161743,
1254,-0.0115967,0.0160767,
1256,0.00366211,0.0160095,
1258,0.00549316,0.0159729,
1260,-0.00488281,0.0156067,
1262,-0.0134277,0.015509,
1264,-0.0115967,0.0154358,
1266,-0.00183105,0.0152954,
1268,0.00549316,0.0152649,
1270,0.0128174,0.0150696,
1272,-0.00305176,0.0150513,
1274,-0.00915527,0.0150818,
1276,0.00976563,0.0150696,
1278,0.032959,0.0150879,
1280,-0.0311279,0.0151306,
1282,-0.00488281,0.0151001,
1284,0.0115967,0.0151733,
1286,0.00976563,0.0150879,
1288,0.0274658,0.0150269,
1290,-0.043335,0.0149841,
1292,0.00671387,0.0148926,
1294,0.0244141,0.015094,
1296,0.0268555,0.0152954,
1298,0.0231934,0.0154785,
1300,-0.0531006,0.0159119,
1302,0.0170898,0.0158264,
1304,0.0158691,0.0156555,
1306,0.00732422,0.0153076,
1308,-0.00427246,0.0144775,
1310,-0.0219727,0.0146606,
1312,-0.010376,0.0144958,
1314,0.00854492,0.0145203,
1316,0.00610352,0.0143555,
1318,0.0531006,0.0145264,
1320,-0.000610352,0.0143188,
1322,-0.0183105,0.0143555,
1324,0.0164795,0.0144958,
1326,-0.00549316,0.0145325,
1328,-0.00671387,0.0145691,
1330,-0.0152588,0.0146851,
1332,-0.0201416,0.0148621,
1334,-0.0305176,0.015155,
1336,-0.00915527,0.0151184,
1338,0.032959,0.0153015,
1340,-0.0128174,0.0150757,
1342,-0.0286865,0.0152649,
1344,0.0463867,0.015625,
1346,-0.00671387,0.0156311,
1348,-0.0158691,0.0156372,
1350,-0.00244141,0.0155701,
1352,0.0396729,0.0158752,
1354,-0.0201416,0.0159485,
1356,-0.0634766,0.0164307,
1358,0.0469971,0.016864,
1360,0.00671387,0.0167114,
1362,-0.0317383,0.0168823,
1364,-0.00488281,0.0166443,
1366,0.0268555,0.0168457,
1368,-0.0177002,0.0170044,
1370,-0.0683594,0.0176208,
1372,0.0170898,0.0176758,
1374,-0.00671387,0.0177002,
1376,-0.0140381,0.0178223,
1378,-0.012207,0.0178101,
1380,0.0616455,0.018103,
1382,0.032959,0.0181274,
1384,-0.106812,0.0190613,
1386,0.103149,0.0200256,
1388,0.0457764,0.0203674,
1390,-0.0531006,0.0206604,
1392,0.00549316,0.0201721,
1394,-0.0170898,0.0203308,
1396,0.0012207,0.0201721,
1398,-0.00732422,0.0200867,
1400,0.0195313,0.020105,
1402,-0.0823975,0.0209106,
1404,0.00732422,0.0208008,
1406,0.0158691,0.0207886,
1408,-0.00427246,0.0207886,
1410,0.00915527,0.020752,
1412,-0.0109863,0.0207336,
1414,-0.00366211,0.0207275,
1416,0.0958252,0.0215027,
1418,-0.0128174,0.0213989,
1420,-0.0592041,0.0217896,
1422,0.0244141,0.0218933,
1424,0.057373,0.0221375,
1426,-0.0268555,0.0221008,
1428,-0.0354004,0.0222595,
1430,-0.0469971,0.0224792,
1432,-0.0134277,0.0225525,
1434,-0.010376,0.0225342,
1436,-0.00732422,0.0225952,
1438,-0.0128174,0.022644,
1440,0.0152588,0.022467,
1442,0.0500488,0.0228394,
1444,-0.0457764,0.0232239,
1446,-0.00488281,0.0232666,
1448,0.0134277,0.0232422,
1450,-0.000610352,0.0230164,
1452,-0.0134277,0.0231201,
1454,0.000610352,0.0230103,
1456,0.0354004,0.0233276,
1458,-0.0793457,0.0240662,
1460,0.00427246,0.0240601,
1462,0.0256348,0.0241821,
1464,-0.0012207,0.0240784,
1466,-0.00366211,0.0240967,
1468,0.00610352,0.0241028,
1470,-0.020752,0.0241821,
1472,0.00183105,0.0241699,
1474,0.032959,0.024408,
1476,0.00366211,0.0243469,
1478,0.0128174,0.0241455,
1480,-0.0244141,0.0240784,
1482,-0.00793457,0.0241089,
1484,0.00732422,0.0240662,
1486,-0.00976563,0.0240662,
1488,-0.00915527,0.0238831,
1490,-0.020752,0.0236572,
1492,-0.0128174,0.0237183,
1494,-0.00366211,0.0235107,
1496,0.00366211,0.0232788,
1498,0.00183105,0.0230652,
1500,-0.00549316,0.0225891,
1502,0.00366211,0.0224548,
1504,0.0140381,0.0224365,
1506,0.0604248,0.0229675,
1508,-0.0579834,0.0235046,
1510,-0.020752,0.0234924,
1512,0.0299072,0.0236877,
1514,0,0.0236023,
1516,-0.0189209,0.0237305,
1518,-0.0262451,0.0234619,
1520,-0.0213623,0.0236694,
1522,-0.00732422,0.0235596,
1524,0.012207,0.0235168,
1526,0.0164795,0.0236267,
1528,-0.00610352,0.0236206,
1530,-0.0292969,0.023761,
1532,0.03479,0.0239075,
1534,-0.0195313,0.0237976,
1536,-0.00671387,0.0237732,
1538,-0.0115967,0.0235596,
1540,-0.0213623,0.023645,
1542,-0.00671387,0.0234253,
1544,-0.0128174,0.0230896,
1546,0.0158691,0.0231812,
1548,-0.0201416,0.0232239,
1550,0.010376,0.0233032,
1552,-0.0140381,0.0230469,
1554,0.0195313,0.0230408,
1556,0.0201416,0.0226074,
1558,-0.0604248,0.0227417,
1560,-0.0140381,0.0228149,
1562,0.0170898,0.0226685,
1564,-0.0012207,0.0226318,
1566,-0.0152588,0.0225159,
1568,-0.0286865,0.0226257,
1570,-0.0177002,0.0221191,
1572,0.00671387,0.0220154,
1574,-0.012207,0.0220703,
1576,-0.00427246,0.0219727,
1578,-0.00427246,0.0218933,
1580,0.0195313,0.0214722,
1582,-0.0280762,0.0214233,
1584,-0.012207,0.0204773,
1586,0.00854492,0.0195313,
1588,-0.00244141,0.0190979,
1590,-0.00671387,0.018634,
1592,-0.00427246,0.0186218,
1594,-0.00915527,0.0185425,
1596,-0.00793457,0.0186096,
1598,0.010376,0.0186401,
1600,0.0335693,0.0187805,
1602,0.0372314,0.0183289,
1604,-0.0439453,0.0186951,
1606,-0.022583,0.0187622,
1608,0.0274658,0.0189941,
1610,0.00854492,0.018988,
1612,-0.0292969,0.0191711,
1614,-0.0299072,0.0194336,
1616,-0.0311279,0.0187866,
1618,-0.0146484,0.0188049,
1620,-0.00732422,0.0182861,
1622,-0.00183105,0.0180603,
1624,0,0.0174866,
1626,0,0.017218,
1628,0.0292969,0.017157,
1630,0.0402832,0.0170898,
1632,-0.0738525,0.0176941,
1634,0.0305176,0.0178955,
1636,0.00793457,0.0179016,
1638,0.0134277,0.0179077,
1640,0.0256348,0.0180115,
1642,-0.0708008,0.018219,
1644,-0.0177002,0.0179382,
1646,0.00305176,0.0179199,
1648,0.00854492,0.0178711,
1650,-0.0183105,0.0180481,
1652,0.00427246,0.0179565,
1654,-0.0256348,0.0182068,
1656,-0.0201416,0.0180542,
1658,0.0305176,0.0175659,
1660,0.0140381,0.0176636,
1662,-0.0219727,0.017627,
1664,0.0378418,0.0179932,
1666,-0.0360107,0.0183167,
1668,-0.00793457,0.018335,
1670,0.00549316,0.0181824,
1672,-0.00427246,0.0182068,
1674,-0.0158691,0.0180359,
1676,-0.00793457,0.0180786,
1678,0.00915527,0.018042,
1680,-0.00244141,0.0178223,
1682,-0.00427246,0.0177856,
1684,0.00610352,0.0177734,
1686,0.0152588,0.0178284,
1688,0.00183105,0.0177551,
1690,0,0.0175476,
1692,0.0238037,0.0176575,
1694,-0.0366211,0.0179871,
1696,-0.00610352,0.0180115,
1698,0.0201416,0.0181946,
1700,-0.0012207,0.0181519,
1702,0.0231934,0.0183472,
1704,0.00854492,0.0182922,
1706,-0.010376,0.0177917,
1708,-0.0152588,0.0173645,
1710,0.00915527,0.0172485,
1712,0.00671387,0.0170166,
1714,-0.0109863,0.0171265,
1716,-0.00244141,0.0169617,
1718,0.0128174,0.0168274,
1720,-0.045166,0.0170654,
1722,-0.00183105,0.0170105,
1724,0.0195313,0.0170837,
1726,0.00305176,0.0169495,
1728,-0.00793457,0.0169678,
1730,0.00183105,0.0166931,
1732,0.0476074,0.0168213,
1734,-0.0506592,0.0171326,
1736,0.00976563,0.0171631,
1738,0.0299072,0.0173462,
1740,0.00915527,0.0172241,
1742,-0.00671387,0.0172241,
1744,0.010376,0.0171997,
1746,-0.00427246,0.0170837,
1748,-0.0262451,0.0171448,
1750,0.00854492,0.0171265,
1752,0.00488281,0.0170349,
1754,-0.010376,0.0169434,
1756,0.00366211,0.0167786,
1758,0.0317383,0.0164917,
1760,-0.0543213,0.0168945,
1762,0.00488281,0.0167725,
1764,0.0158691,0.0169189,
1766,-0.00427246,0.0168091,
1768,-0.00549316,0.0165771,
1770,0.00366211,0.0164368,
1772,-0.0158691,0.0165283,
1774,-0.0201416,0.0166077,
1776,0.0164795,0.0167297,
1778,0.0012207,0.0166992,
1780,-0.00915527,0.0165955,
1782,0.00183105,0.016333,
1784,-0.00793457,0.0162903,
1786,0.0360107,0.0165649,
1788,0.0158691,0.0166992,
1790,-0.0158691,0.0167908,
1792,-0.0012207,0.0167603,
1794,0.0219727,0.0168884,
1796,0.0323486,0.0171326,
1798,-0.045166,0.0174805,
1800,-0.0250244,0.017395,
1802,0.0158691,0.0171814,
1804,-0.0183105,0.016925,
1806,-0.0286865,0.0169861,
1808,-0.00183105,0.0167297,
1810,-0.010376,0.016748,
1812,0.00244141,0.0164795,
1814,-0.00183105,0.0161987,
1816,0.000610352,0.0158936,
1818,-0.00915527,0.0158386,
1820,-0.000610352,0.0157715,
1822,-0.000610352,0.0157593,
1824,-0.00488281,0.0158081,
1826,-0.00366211,0.0158447,
1828,-0.00366211,0.0155884,
1830,0.00915527,0.0152771,
1832,0.0152588,0.0146912,
1834,0.0537109,0.0149231,
1836,0.00915527,0.0149353,
1838,-0.0921631,0.0157227,
1840,0.0396729,0.015863,
1842,-0.0012207,0.0151672,
1844,-0.0299072,0.0152893,
1846,-0.0463867,0.0157227,
1848,-0.0384521,0.0160217,
1850,-0.0317383,0.016156,
1852,-0.0152588,0.0162659,
1854,-0.00915527,0.0161011,
1856,-0.00549316,0.0159546,
1858,0.00244141,0.0156738,
1860,0.000610352,0.0155396,
1862,0.00305176,0.0153503,
1864,0.0134277,0.0151062,
1866,-0.00244141,0.0147705,
1868,0.0421143,0.0151123,
1870,-0.00854492,0.0151428,
1872,-0.0158691,0.0152588,
1874,-0.010376,0.0152039,
1876,0.0158691,0.0152832,
1878,0.00732422,0.0152649,
1880,-0.0183105,0.0154236,
1882,-0.020752,0.0155884,
1884,0.00244141,0.0155518,
1886,-0.0115967,0.0155151,
1888,0.0183105,0.0156799,
1890,0.0518799,0.0161987,
1892,-0.0384521,0.0163452,
1894,-0.0164795,0.0161438,
1896,0.0543213,0.016626,
1898,0.0152588,0.0165771,
1900,-0.0256348,0.0168213,
1902,0.0012207,0.0166016,
1904,-0.00305176,0.0165466,
1906,0.00366211,0.0164795,
1908,0.00854492,0.0164124,
1910,0.00488281,0.0163696,
1912,-0.000610352,0.0163086,
1914,0.0378418,0.0165771,
1916,-0.00915527,0.0166443,
1918,-0.0012207,0.0165283,
1920,0.0311279,0.0163879,
1922,0.0201416,0.016571,
1924,-0.0177002,0.0165527,
1926,-0.00549316,0.0165771,
1928,0.00244141,0.0165222,
1930,0.0012207,0.0165161,
1932,0.0158691,0.0161987,
1934,-0.00183105,0.0157104,
1936,0.00488281,0.0156616,
1938,0.0140381,0.0155029,
1940,0.0500488,0.0159119,
1942,-0.0219727,0.0160645,
1944,-0.0280762,0.0162415,
1946,0.0189209,0.0163879,
1948,0.00488281,0.0161743,
1950,-0.0183105,0.016272,
1952,-0.0183105,0.0164063,
1954,-0.00854492,0.0163879,
1956,-0.00793457,0.0164307,
1958,0.00610352,0.0161743,
1960,0.00549316,0.015686,
1962,0.0213623,0.0158508,
1964,0.0238037,0.0159302,
1966,-0.012207,0.0160095,
1968,0.00488281,0.0160034,
1970,0.0463867,0.0164307,
1972,-0.0421143,0.0166931,
1974,-0.00610352,0.0165527,
1976,-0.00366211,0.0164246,
1978,-0.00793457,0.0164917,
1980,-0.0244141,0.0166443,
1982,-0.0115967,0.0167419,
1984,0.012207,0.0167847,
1986,-0.0531006,0.0169556,
1988,-0.00671387,0.016864,
1990,-0.00244141,0.0167297,
1992,-0.0012207,0.0167297,
1994,-0.00915527,0.0166016,
1996,0.022583,0.0165039,
1998,0.00671387,0.0161194,
2000,-0.0689697,0.0165588,
2002,0.0170898,0.016571,
2004,0.0115967,0.0165039,
2006,-0.0189209,0.0164063,
2008,-0.020752,0.0165955,
2010,-0.0158691,0.0166504,
2012,0.00671387,0.0166931,
2014,-0.0183105,0.0168579,
2016,-0.0408936,0.0172607,
2018,0.010376,0.0172729,
2020,-0.00305176,0.0172974,
2022,-0.00488281,0.0173401,
2024,-0.0140381,0.0174316,
2026,-0.0134277,0.0175293,
2028,-0.00732422,0.0175659,
2030,-0.0146484,0.0176208,
2032,0.0109863,0.0175781,
2034,-0.0158691,0.0171997,
2036,0.00183105,0.0171265,
2038,0.0274658,0.0164795,
2040,0.00976563,0.0161804,
2042,-0.03479,0.0165161,
2044,-0.00732422,0.0162903,
2046,0.00366211,0.015863,
2048,-0.00488281,0.0155273,
2050,-0.0158691,0.0153687,
2052,-0.0146484,0.0153625,
2054,0.00427246,0.0153137,
2056,0.0506592,0.0157654,
2058,-0.0469971,0.0162109,
2060,0.0140381,0.0163452,
2062,-0.00793457,0.016394,
2064,0.0158691,0.0164185,
2066,-0.010376,0.0164978,
2068,-0.0335693,0.0164124,
2070,-0.00183105,0.0163452,
2072,-0.0335693,0.0165222,
2074,-0.0280762,0.0166992,
2076,-0.0109863,0.0166504,
2078,-0.0164795,0.0167419,
2080,-0.00915527,0.0166504,
2082,-0.00610352,0.0165039,
2084,-0.00671387,0.0165466,
2086,0.000610352,0.0164368,
2088,-0.00732422,0.0163269,
2090,-0.000610352,0.0158142,
2092,0.00549316,0.0154846,
2094,-0.0158691,0.0154785,
2096,-0.00305176,0.0149658,
2098,0.00671387,0.0148804,
2100,-0.0128174,0.0147522,
2102,-0.00915527,0.0148315,
2104,-0.00854492,0.0148865,
2106,-0.00976563,0.0149475,
2108,-0.0012207,0.0148743,
2110,-0.00366211,0.0148621,
2112,-0.00305176,0.0148865,
2114,0.00427246,0.0145508,
2116,-0.00549316,0.0145142,
2118,-0.00671387,0.0145691,
2120,-0.00366211,0.0142944,
2122,0.020752,0.0143005,
2124,-0.00793457,0.0142029,
2126,-0.0213623,0.0143616,
2128,0.00366211,0.0143738,
2130,0.000610352,0.0143677,
2132,-0.00549316,0.0142639,
2134,-0.00976563,0.0143433,
2136,-0.00488281,0.0143433,
2138,-0.00427246,0.0142456,
2140,0,0.0137451,
2142,0.0134277,0.0136597,
2144,-0.00793457,0.0134583,
2146,0.010376,0.0133728,
2148,0.0183105,0.0135071,
2150,-0.0213623,0.0135376,
2152,0.000610352,0.0133606,
2154,0.00671387,0.0133423,
2156,-0.00732422,0.0133362,
2158,-0.00610352,0.0133362,
2160,-0.0115967,0.0133972,
2162,-0.00183105,0.0132019,
2164,0.00610352,0.0130249,
2166,0.0140381,0.0130432,
2168,0.0305176,0.0132996,
2170,-0.012207,0.0129578,
2172,-0.0280762,0.0128174,
2174,0.0256348,0.0130127,
2176,0.0231934,0.013208,
2178,-0.0213623,0.0133423,
2180,-0.045166,0.0135498,
2182,0.00366211,0.0134705,
2184,0.00610352,0.0134094,
2186,0.00610352,0.0129395,
2188,-0.0415039,0.0132874,
2190,0.00610352,0.013324,
2192,-0.00427246,0.0133545,
2194,-0.00671387,0.0133301,
2196,0.000610352,0.0131104,
2198,-0.0256348,0.0132996,
2200,0.0164795,0.0127747,
2202,0.0195313,0.0127991,
2204,-0.065918,0.0133423,
2206,-0.000610352,0.0131592,
2208,0.00732422,0.0130249,
2210,0,0.0128662,
2212,-0.0189209,0.0129883,
2214,0.00793457,0.0128845,
2216,-0.0134277,0.0126099,
2218,-0.0372314,0.0128784,
2220,0.00610352,0.0129089,
2222,-0.00488281,0.0129089,
2224,-0.00183105,0.0127869,
2226,0.0195313,0.0128479,
2228,-0.00854492,0.0128601,
2230,0.00549316,0.0127686,
2232,-0.0366211,0.0130249,
2234,0.00549316,0.0129211,
2236,0.0231934,0.0131348,
2238,-0.00427246,0.0129028,
2240,-0.0671387,0.0134766,
2242,-0.0109863,0.0132385,
2244,-0.00854492,0.0132507,
2246,-0.0189209,0.0134033,
2248,-0.0146484,0.013501,
2250,-0.0115967,0.0134583,
2252,0.012207,0.0134338,
2254,0.0299072,0.0136902,
2256,-0.0469971,0.0136536,
2258,0.00732422,0.0132568,
2260,0.0274658,0.0133911,
2262,-0.00610352,0.0133728,
2264,-0.000610352,0.0132202,
2266,0,0.0131165,
2268,-0.0286865,0.0130676,
2270,0.00488281,0.0130981,
2272,0.0201416,0.0129639,
2274,0.010376,0.0127869,
2276,-0.0299072,0.0129761,
2278,0.0189209,0.0130005,
2280,-0.012207,0.013031,
2282,0.00488281,0.0130188,
2284,0.00427246,0.0129944,
2286,-0.00366211,0.0130249,
2288,-0.0134277,0.0130859,
2290,-0.00305176,0.0131104,
2292,0.00427246,0.0130981,
2294,-0.00183105,0.0129578,
2296,-0.000610352,0.0129333,
2298,0.0146484,0.0130127,
2300,0.0012207,0.0128967,
2302,-0.00244141,0.0128296,
2304,0.00671387,0.0128113,
2306,-0.00732422,0.0127869,
2308,0.00976563,0.0128723,
2310,-0.00305176,0.0128662,
2312,0.0213623,0.0130493,
2314,0.0531006,0.0135376,
2316,-0.0683594,0.0141663,
2318,-0.0170898,0.01427,
2320,0.0250244,0.0144836,
2322,-0.00915527,0.0143677,
2324,-0.0189209,0.0144775,
2326,-0.032959,0.0145935,
2328,-0.0238037,0.0147949,
2330,-0.0177002,0.0149658,
2332,-0.00915527,0.0150024,
2334,-0.00305176,0.0149353,
2336,-0.00488281,0.0149353,
2338,-0.0115967,0.0150085,
2340,-0.00244141,0.015033,
2342,0.00732422,0.0149719,
2344,0.0177002,0.0150696,
2346,0.00915527,0.0150574,
2348,-0.0299072,0.0151733,
2350,0.0158691,0.0151184,
2352,-0.00244141,0.0151367,
2354,0.0012207,0.0150818,
2356,-0.010376,0.0151123,
2358,-0.00854492,0.0151367,
2360,-0.00976563,0.0151184,
2362,0.00244141,0.0151245,
2364,0.00488281,0.0151123,
2366,-0.00305176,0.0150024,
2368,0.00793457,0.0147766,
2370,0.0152588,0.0148071,
2372,-0.0109863,0.0146362,
2374,0.00732422,0.0144531,
2376,0.065918,0.0148804,
2378,0.0701904,0.0153687,
2380,-0.137939,0.0162964,
2382,0.022583,0.0164856,
2384,0.0427246,0.0168518,
2386,-0.000610352,0.0167969,
2388,-0.0250244,0.0166321,
2390,-0.0415039,0.0169861,
2392,-0.0170898,0.0171143,
2394,-0.0115967,0.0171631,
2396,0.00610352,0.017218,
2398,0.0299072,0.0172607,
2400,-0.0250244,0.0173462,
2402,0.000610352,0.017157,
2404,0.00732422,0.016571,
2406,0.00549316,0.0166199,
2408,0.00244141,0.016571,
2410,0,0.016571,
2412,-0.0250244,0.0166321,
2414,0.00610352,0.0166138,
2416,0.00366211,0.0165161,
2418,0.00732422,0.016217,
2420,-0.00305176,0.0161865,
2422,-0.00305176,0.0161682,
2424,0.00549316,0.0162048,
2426,0.0238037,0.0162476,
2428,0.0183105,0.0163452,
2430,-0.0213623,0.0165039,
2432,0.00915527,0.0162292,
2434,0.0219727,0.016394,
2436,-0.00305176,0.0161926,
2438,-0.00976563,0.0162476,
2440,0.0213623,0.0157898,
2442,-0.032959,0.0160095,
2444,-0.00793457,0.0160034,
2446,-0.00366211,0.0158508,
2448,-0.00305176,0.0157349,
2450,-0.0140381,0.0157593,
2452,-0.00549316,0.0156921,
2454,-0.00732422,0.0154663,
2456,-0.010376,0.0151001,
2458,0.00488281,0.0150757,
2460,0.000610352,0.0148071,
2462,0.00366211,0.0147827,
2464,0.0311279,0.0150879,
2466,0.0274658,0.0153625,
2468,-0.0671387,0.0157471,
2470,0.0152588,0.0158508,
2472,0.0140381,0.0157898,
2474,-0.00915527,0.0157776,
2476,-0.00549316,0.0155334,
2478,0.0128174,0.0154724,
2480,-0.0299072,0.0156494,
2482,-0.00976563,0.0156982,
2484,-0.00549316,0.0157104,
2486,0.0128174,0.015802,
2488,0.00366211,0.0157043,
2490,-0.0146484,0.0158203,
2492,-0.00488281,0.0158264,
2494,0.0115967,0.0159241,
2496,0.0421143,0.0163391,
2498,-0.0836182,0.0170288,
2500,0.00549316,0.0170715,
2502,0.0219727,0.0172668,
2504,-0.0238037,0.0174377,
2506,-0.0201416,0.0175659,
2508,-0.0256348,0.0177246,
2510,-0.0213623,0.0179077,
2512,-0.00427246,0.0177368,
2514,-0.0262451,0.0174683,
2516,-0.010376,0.0168884,
2518,-0.00183105,0.0167358,
2520,-0.0170898,0.0166565,
2522,0,0.0165649,
2524,-0.0140381,0.0165161,
2526,-0.00549316,0.0162415,
2528,-0.00244141,0.0160278,
2530,-0.00793457,0.0159302,
2532,0.020752,0.0160461,
2534,-0.0140381,0.016156,
2536,-0.0256348,0.0163635,
2538,0.0189209,0.0164368,
2540,0.0128174,0.0165405,
2542,-0.0152588,0.0166199,
2544,-0.0622559,0.0170654,
2546,-0.0177002,0.0171509,
2548,-0.00915527,0.0169434,
2550,-0.0256348,0.017041,
2552,-0.0189209,0.0172058,
2554,-0.0158691,0.0173523,
2556,-0.0238037,0.0174866,
2558,-0.0128174,0.0175293,
2560,0.020752,0.0176392,
2562,-0.0354004,0.0179688,
2564,0.00610352,0.017981,
2566,-0.00671387,0.0180176,
2568,-0.012207,0.0180603,
2570,-0.0213623,0.0181213,
2572,0.022583,0.0182373,
2574,-0.0128174,0.0182922,
2576,-0.0396729,0.0180298,
2578,-0.00183105,0.0173462,
2580,0.00427246,0.0160095,
2582,-0.0286865,0.0160706,
2584,-0.0146484,0.0157898,
2586,-0.0238037,0.0160217,
2588,-0.010376,0.0158752,
2590,-0.00732422,0.0155334,
2592,0.0146484,0.015509,
2594,-0.0311279,0.0157043,
2596,-0.0189209,0.0158325,
2598,0.0164795,0.0156982,
2600,0.0012207,0.0154602,
2602,-0.00427246,0.0154968,
2604,-0.00610352,0.0154846,
2606,-0.020752,0.0156372,
2608,0.000610352,0.0156189,
2610,0.00305176,0.0156494,
2612,-0.0012207,0.0154114,
2614,0.00915527,0.0154419,
2616,0.00671387,0.0154724,
2618,-0.020752,0.0156067,
2620,0.00488281,0.015625,
2622,0.03479,0.0159424,
2624,0.0323486,0.0162109,
2626,-0.0714111,0.016687,
2628,0.03479,0.0168518,
2630,0.0317383,0.0169556,
2632,-0.0299072,0.0171631,
2634,0.00854492,0.0170288,
2636,-0.0274658,0.0172729,
2638,-0.0128174,0.0173035,
2640,0.00366211,0.0171265,
2642,-0.00854492,0.0168823,
2644,-0.0292969,0.0170959,
2646,-0.0158691,0.017218,
2648,0.00549316,0.0172424,
2650,-0.012207,0.0172241,
2652,0.00183105,0.0171875,
2654,-0.00915527,0.0172058,
2656,0.00305176,0.0171326,
2658,0.00549316,0.0171387,
2660,0.010376,0.0172363,
2662,0.045166,0.0176514,
2664,-0.00976563,0.0174377,
2666,-0.0366211,0.0175293,
2668,0.0305176,0.0171631,
2670,0.00976563,0.0171082,
2672,-0.0109863,0.0170776,
2674,-0.00671387,0.0170532,
2676,-0.0146484,0.0171448,
2678,-0.00610352,0.0170776,
2680,-0.0109863,0.0168884,
2682,0.0177002,0.0169678,
2684,0.0323486,0.0172363,
2686,-0.0390625,0.0174988,
2688,-0.00183105,0.0174805,
2690,0.00915527,0.0174255,
2692,0.0152588,0.0175293,
2694,-0.000610352,0.0174194,
2696,-0.0213623,0.0172119,
2698,-0.0109863,0.0164856,
2700,0.00244141,0.0164551,
2702,0.00976563,0.016333,
2704,0.00366211,0.0161316,
2706,-0.00244141,0.0159546,
2708,-0.010376,0.015802,
2710,0.000610352,0.0155945,
2712,0.0164795,0.0157166,
2714,0.0158691,0.0156128,
2716,-0.0134277,0.0156433,
2718,0.0158691,0.0157837,
2720,0.0183105,0.0157959,
2722,-0.00244141,0.0158203,
2724,0.0585938,0.0162659,
2726,0.03479,0.0165588,
2728,-0.0726318,0.0172607,
2730,0.0262451,0.0174438,
2732,0.0262451,0.0174988,
2734,-0.00610352,0.0174194,
2736,-0.012207,0.0172852,
2738,-0.0177002,0.0172729,
2740,-0.00793457,0.0172241,
2742,-0.000610352,0.0170776,
2744,0.00183105,0.0164734,
2746,0.0128174,0.0164246,
2748,0.00793457,0.0164124,
2750,0.0146484,0.0163025,
2752,0.0323486,0.0164368,
2754,0.0164795,0.0164429,
2756,-0.0189209,0.016394,
2758,0.0115967,0.0163818,
2760,0.010376,0.0162781,
2762,0.00549316,0.015979,
2764,-0.00488281,0.0159668,
2766,0.00427246,0.0159424,
2768,0.0152588,0.0159729,
2770,-0.0286865,0.0160461,
2772,0.00793457,0.0158997,
2774,0.0170898,0.0159424,
2776,-0.0012207,0.0155579,
2778,0.020752,0.0157471,
2780,0.00671387,0.0157715,
2782,-0.0183105,0.0156677,
2784,-0.00976563,0.0156189,
2786,0.00549316,0.0154358,
2788,0.00366211,0.0153687,
2790,-0.00427246,0.0153381,
2792,-0.0195313,0.015387,
2794,-0.00976563,0.0151733,
2796,-0.00488281,0.015033,
2798,0.00427246,0.0149109,
2800,-0.00610352,0.0149597,
2802,0.0012207,0.0149292,
2804,-0.00915527,0.0149597,
2806,0.00427246,0.0147949,
2808,0.00793457,0.0148682,
2810,0.00732422,0.0149109,
2812,0.00427246,0.0149414,
2814,-0.0195313,0.0150452,
2816,0.0512695,0.0154907,
2818,-0.022583,0.015509,
2820,-0.0408936,0.0158691,
2822,-0.00305176,0.0155518,
2824,-0.0012207,0.0152405,
2826,-0.0201416,0.0147278,
2828,-0.0231934,0.0146118,
2830,-0.0274658,0.0145691,
2832,-0.00732422,0.0143433,
2834,-0.0109863,0.0143677,
2836,-0.00732422,0.0141663,
2838,0.00244141,0.0140625,
2840,0.0146484,0.0141724,
2842,-0.0189209,0.0142761,
2844,-0.022583,0.014209,
2846,0.0140381,0.0141907,
2848,0.00671387,0.0142029,
2850,-0.0146484,0.0142273,
2852,-0.0238037,0.014447,
2854,-0.00610352,0.0144165,
2856,-0.00732422,0.0144592,
2858,-0.00305176,0.0144348,
2860,-0.0152588,0.0144836,
2862,-0.00976563,0.0141296,
2864,-0.00976563,0.0141296,
2866,-0.0012207,0.0137756,
2868,0.00244141,0.0134949,
2870,-0.0115967,0.0135132,
2872,-0.0134277,0.0135376,
2874,0,0.0134705,
2876,0.010376,0.0134277,
2878,0.00183105,0.013385,
2880,-0.0164795,0.0134399,
2882,-0.00244141,0.0132874,
2884,-0.00305176,0.0129944,
2886,0,0.0126038,
2888,0.00671387,0.0126526,
2890,0.00427246,0.0126038,
2892,-0.00366211,0.0124878,
2894,-0.00610352,0.0125427,
2896,0.0183105,0.0125122,
2898,-0.000610352,0.0124084,
2900,-0.00915527,0.0124756,
2902,0.00244141,0.0124023,
2904,0.00183105,0.012384,
2906,0.0231934,0.0125916,
2908,0.022583,0.0127136,
2910,0.0170898,0.0128784,
2912,-0.0494385,0.013208,
2914,-0.0256348,0.0133057,
2916,0.0183105,0.0133545,
2918,-0.0115967,0.0133118,
2920,-0.032959,0.0134583,
2922,-0.0408936,0.0138428,
2924,-0.0305176,0.013562,
2926,-0.0219727,0.0134338,
2928,-0.0128174,0.0128357,
2930,0.000610352,0.0125793,
2932,-0.00488281,0.0123657,
2934,-0.00671387,0.0123718,
2936,-0.00366211,0.0122864,
2938,-0.00671387,0.0121765,
2940,-0.00671387,0.0121643,
2942,-0.00793457,0.0122375,
2944,-0.00305176,0.0122498,
2946,-0.00610352,0.0121826,
2948,0.0115967,0.0122192,
2950,-0.00366211,0.0121094,
2952,0.00976563,0.0118835,
2954,-0.020752,0.0119263,
2956,-0.00366211,0.0117737,
2958,0.00244141,0.0116821,
2960,-0.00732422,0.0116516,
2962,-0.0158691,0.0117554,
2964,-0.0164795,0.0118713,
2966,0,0.0118286,
2968,-0.012207,0.0117981,
2970,-0.0170898,0.0116821,
2972,-0.00244141,0.0116272,
2974,0.00366211,0.0114929,
2976,-0.00915527,0.0115723,
2978,-0.00244141,0.0113892,
2980,-0.00427246,0.0113647,
2982,-0.00305176,0.0112122,
2984,0.0109863,0.0112244,
2986,0.012207,0.0112915,
2988,0.0219727,0.0114746,
2990,-0.0238037,0.0116699,
2992,0.0311279,0.0117859,
2994,0.0811768,0.0125,
2996,-0.0695801,0.013147,
2998,-0.0360107,0.0134644,
3000,0.0134277,0.0135376,
3002,-0.0128174,0.0136536,
3004,-0.0256348,0.0138184,
3006,-0.0439453,0.0142151,
3008,-0.032959,0.0144653,
3010,-0.0305176,0.0146973,
3012,-0.00976563,0.0147522,
3014,-0.00610352,0.0146179,
3016,-0.0177002,0.0142822,
3018,0.0219727,0.0142761,
3020,0.0140381,0.0140076,
3022,-0.0604248,0.0145813,
3024,0.0134277,0.0147034,
3026,-0.000610352,0.0145081,
3028,0.0152588,0.0144287,
3030,0.00915527,0.0142456,
3032,-0.0561523,0.0147339,
3034,0.00915527,0.0147156,
3036,0.020752,0.0148499,
3038,0.022583,0.0150513,
3040,-0.0738525,0.0156433,
3042,-0.00183105,0.0154724,
3044,0.00427246,0.0152893,
3046,-0.0189209,0.0153381,
3048,-0.0134277,0.0154053,
3050,-0.0158691,0.0154175,
3052,-0.0244141,0.0154236,
3054,0.00305176,0.0153931,
3056,0.00732422,0.0153931,
3058,0.0250244,0.0156128,
3060,-0.0305176,0.0157654,
3062,0.010376,0.0157715,
3064,0.0128174,0.015802,
3066,-0.012207,0.0159119,
3068,-0.00854492,0.0159729,
3070,0,0.0158569,
3072,-0.00793457,0.015802,
3074,-0.00488281,0.0158508,
3076,0.00244141,0.0157715,
3078,-0.00549316,0.0158081,
3080,-0.00183105,0.0156616,
3082,0.00793457,0.0157166,
3084,0.00183105,0.0157043,
3086,-0.00854492,0.0157898,
3088,0.0012207,0.0157349,
3090,-0.00305176,0.0157227,
3092,0.00183105,0.0157043,
3094,0.00671387,0.0157104,
3096,0.000610352,0.0155334,
3098,-0.012207,0.0156494,
3100,0,0.0155579,
3102,0.0299072,0.0158325,
3104,0.0415039,0.0162292,
3106,-0.000610352,0.0160034,
3108,-0.0708008,0.0164856,
3110,0.0183105,0.0164978,
3112,0.00610352,0.0160645,
3114,-0.012207,0.0159302,
3116,-0.0262451,0.0160095,
3118,-0.0213623,0.0161072,
3120,-0.0262451,0.01604,
3122,-0.00793457,0.0157104,
3124,0.0189209,0.0155945,
3126,-0.00488281,0.0154236,
3128,-0.00244141,0.0153198,
3130,0.0140381,0.0154541,
3132,-0.00427246,0.015448,
3134,-0.00366211,0.0154175,
3136,-0.00732422,0.0154541,
3138,0.00244141,0.0154114,
3140,0,0.0153442,
3142,-0.0134277,0.0153992,
3144,-0.00305176,0.0153992,
3146,0.0262451,0.0156006,
3148,0.0646973,0.0161316,
3150,-0.0531006,0.016626,
3152,-0.0286865,0.0168152,
3154,0.0305176,0.0169128,
3156,0.0134277,0.0170105,
3158,-0.0274658,0.0172607,
3160,-0.0177002,0.0173645,
3162,-0.0213623,0.0174194,
3164,-0.0286865,0.0175415,
3166,0.00427246,0.0175842,
3168,-0.00549316,0.0175171,
3170,-0.010376,0.01745,
3172,-0.00732422,0.0174988,
3174,0.000610352,0.0174683,
3176,-0.000610352,0.0173828,
3178,-0.00427246,0.0174011,
3180,0.00549316,0.0174133,
3182,-0.00366211,0.0174194,
3184,0.00305176,0.0173401,
3186,-0.000610352,0.0172241,
3188,0.00793457,0.0170837,
3190,0.00305176,0.0168762,
3192,0.00976563,0.0166626,
3194,0.0213623,0.0160645,
3196,0.00427246,0.0154114,
3198,0.0134277,0.0151855,
3200,0.0317383,0.0153687,
3202,-0.0177002,0.0154175,
3204,0.00244141,0.0151855,
3206,0.0183105,0.0149292,
3208,0.000610352,0.0146057,
3210,-0.00976563,0.0143982,
3212,0.00793457,0.0143799,
3214,0.00183105,0.0143372,
3216,-0.020752,0.0143677,
3218,0.0109863,0.0142578,
3220,0.0250244,0.0143677,
3222,0.0115967,0.0138794,
3224,0.0531006,0.0142761,
3226,-0.0250244,0.0145203,
3228,0.00305176,0.0143982,
3230,0.0531006,0.0148376,
3232,-0.0158691,0.0144348,
3234,0.00183105,0.0143616,
3236,0.00427246,0.0141968,
3238,-0.0183105,0.0141541,
3240,-0.00305176,0.013446,
3242,-0.00244141,0.0134521,
3244,0.00610352,0.0134705,
3246,-0.00183105,0.0132996,
3248,0.00549316,0.0132202,
3250,0.0109863,0.0131714,
3252,0.00183105,0.0129456,
3254,0.022583,0.0131409,
3256,-0.00244141,0.013092,
3258,-0.00366211,0.0128784,
3260,0.0012207,0.0125854,
3262,-0.00305176,0.0125122,
3264,0.00671387,0.0124512,
3266,-0.00305176,0.0123596,
3268,0.0292969,0.0125671,
3270,0.045166,0.0130188,
3272,-0.0762939,0.0137024,
3274,0.0195313,0.0138489,
3276,0.0164795,0.0139893,
3278,0.0012207,0.0139465,
3280,-0.010376,0.014032,
3282,-0.0201416,0.0141541,
3284,-0.000610352,0.0141418,
3286,-0.00305176,0.0140869,
3288,-0.0146484,0.0142212,
3290,0.00976563,0.0142883,
3292,0.0598145,0.0148682,
3294,0.032959,0.0151306,
3296,-0.0946045,0.0160706,
3298,0.0195313,0.0161438,
3300,0.0286865,0.0164307,
3302,-0.0183105,0.0163147,
3304,-0.0213623,0.0161133,
3306,-0.0323486,0.0164307,
3308,-0.0219727,0.0159424,
3310,-0.0152588,0.0159119,
3312,-0.00732422,0.0159241,
3314,-0.00244141,0.0158264,
3316,-0.0012207,0.0155762,
3318,0.00366211,0.0153992,
3320,-0.00793457,0.0152161,
3322,0.00183105,0.015155,
3324,0.00427246,0.0150085,
3326,-0.00732422,0.015033,
3328,-0.00671387,0.0150757,
3330,0.0115967,0.0150513,
3332,0.00976563,0.0151062,
3334,0.0274658,0.0153442,
3336,-0.0549316,0.0158203,
3338,-0.00183105,0.0158142,
3340,0.0183105,0.0159973,
3342,-0.00488281,0.0159119,
3344,-0.0152588,0.0160339,
3346,-0.010376,0.0158752,
3348,-0.012207,0.0153503,
3350,0.012207,0.0149414,
3352,0.0299072,0.0149536,
3354,-0.0506592,0.015155,
3356,-0.012207,0.0151428,
3358,0.0128174,0.0149963,
3360,-0.0128174,0.0149475,
3362,-0.0268555,0.0150024,
3364,-0.0164795,0.0148804,
3366,-0.0189209,0.0150269,
3368,-0.0177002,0.0151489,
3370,-0.00366211,0.0150818,
3372,0.00183105,0.0150269,
3374,0.00671387,0.0150879,
3376,0.00793457,0.0151611,
3378,-0.00610352,0.0151794,
3380,-0.00854492,0.01521,
3382,0.0109863,0.0152832,
3384,-0.0012207,0.0152649,
3386,-0.00244141,0.0152832,
3388,-0.00549316,0.0152588,
3390,0.00305176,0.0152588,
3392,-0.00244141,0.0151855,
3394,0.00610352,0.015033,
3396,0.010376,0.015094,
3398,0.0158691,0.0151184,
3400,0.00793457,0.0148804,
3402,0.00366211,0.01474,
3404,0.0109863,0.0148254,
3406,0.010376,0.0147461,
3408,0.0183105,0.0149231,
3410,0.00366211,0.0148621,
3412,0.00183105,0.014801,
3414,0.0177002,0.0149597,
3416,0.0286865,0.0150391,
3418,0.00854492,0.0150146,
3420,-0.00915527,0.014856,
3422,0.00366211,0.0147766,
3424,0.00976563,0.0143433,
3426,-0.000610352,0.0140991,
3428,0.010376,0.0141724,
3430,0.0598145,0.0142395,
3432,-0.0634766,0.0147156,
3434,-0.0390625,0.0150879,
3436,0.0292969,0.0153381,
3438,0.00427246,0.0151978,
3440,-0.00915527,0.0152588,
3442,-0.0244141,0.0154785,
3444,-0.022583,0.0156433,
3446,-0.010376,0.0157288,
3448,-0.00610352,0.0157349,
3450,-0.00183105,0.0156433,
3452,0.00488281,0.0156738,
3454,0.00244141,0.0154724,
3456,-0.00854492,0.0155334,
3458,-0.00671387,0.015564,
3460,-0.00488281,0.0156006,
3462,-0.00427246,0.0156128,
3464,-0.00366211,0.0155823,
3466,-0.0115967,0.0156677,
3468,-0.00976563,0.0154724,
3470,-0.000610352,0.0150269,
3472,-0.00488281,0.0143127,
3474,0.00305176,0.0141479,
3476,-0.012207,0.0141052,
3478,0.00427246,0.0141357,
3480,-0.00305176,0.0140625,
3482,-0.0158691,0.0140198,
3484,-0.010376,0.0141174,
3486,-0.00732422,0.0141602,
3488,-0.00976563,0.0141113,
3490,-0.00793457,0.014093,
3492,0.00183105,0.0135132,
3494,-0.00305176,0.0132141,
3496,-0.0286865,0.0125549,
3498,0.00244141,0.012384,
3500,-0.00854492,0.0121826,
3502,-0.00610352,0.0120605,
3504,-0.00671387,0.0119141,
3506,-0.0195313,0.0117859,
3508,-0.0177002,0.0117432,
3510,-0.0244141,0.0118347,
3512,-0.010376,0.0118652,
3514,-0.00549316,0.0118958,
3516,-0.012207,0.0120056,
3518,-0.022583,0.0121948,
3520,-0.0170898,0.0122864,
3522,-0.0146484,0.0124146,
3524,0.0012207,0.012384,
3526,0.0140381,0.0124512,
3528,-0.0274658,0.0126587,
3530,-0.0213623,0.0127563,
3532,-0.000610352,0.0126648,
3534,0.00915527,0.0124817,
3536,0.00366211,0.011969,
3538,-0.03479,0.0122986,
3540,0.00244141,0.0121399,
3542,-0.012207,0.0122131,
3544,-0.00854492,0.012146,
3546,0.00671387,0.0121094,
3548,-0.0366211,0.0123535,
3550,-0.00915527,0.012323,
3552,-0.0109863,0.0121338,
3554,-0.012207,0.0117493,
3556,-0.0189209,0.0118164,
3558,-0.0177002,0.0118652,
3560,-0.00793457,0.0118164,
3562,-0.00793457,0.0116272,
3564,0.020752,0.0116699,
3566,0.0323486,0.0118042,
3568,-0.0524902,0.0121521,
3570,0.000610352,0.0121216,
3572,0.00915527,0.0121948,
3574,0,0.0121277,
3576,-0.0183105,0.0122314,
3578,-0.00976563,0.0122681,
3580,-0.0177002,0.0123596,
3582,-0.0238037,0.0124878,
3584,-0.00305176,0.0125061,
3586,-0.00793457,0.012561,
3588,-0.00671387,0.0125732,
3590,0.00305176,0.0125732,
3592,-0.00183105,0.0125671,
3594,-0.000610352,0.0125122,
3596,-0.0158691,0.0125671,
3598,0.000610352,0.0124146,
3600,-0.000610352,0.0123413,
3602,0.000610352,0.0123108,
3604,-0.00427246,0.0122437,
3606,-0.00549316,0.0121948,
3608,0.0012207,0.0120239,
3610,-0.0140381,0.0121277,
3612,0.000610352,0.0121155,
3614,0.00305176,0.011969,
3616,-0.00915527,0.0117737,
3618,0.0195313,0.0118835,
3620,0.0012207,0.0118042,
3622,-0.0177002,0.0119446,
3624,-0.00183105,0.0118652,
3626,0.0531006,0.0123901,
3628,0.0274658,0.012561,
3630,-0.0402832,0.0123657,
3632,-0.012207,0.011853,
3634,0.0189209,0.0116516,
3636,0.0256348,0.011615,
3638,-0.0463867,0.0120361,
3640,-0.03479,0.0122925,
3642,-0.00915527,0.0121399,
3644,-0.00854492,0.0119995,
3646,0.00549316,0.0119507,
3648,-0.0158691,0.0120483,
3650,-0.0396729,0.0124268,
3652,0.010376,0.0124817,
3654,0.0231934,0.0126892,
3656,0.00732422,0.012677,
3658,-0.0311279,0.0129211,
3660,-0.00549316,0.0129272,
3662,0.0201416,0.0130859,
3664,-0.0286865,0.0133362,
3666,-0.0012207,0.0132324,
3668,0.0317383,0.0134521,
3670,0.0268555,0.0137146,
3672,-0.045166,0.0141174,
3674,0.0012207,0.0140991,
3676,0.0219727,0.0141968,
3678,0.00366211,0.0141907,
3680,-0.00183105,0.0141785,
3682,-0.0012207,0.014032,
3684,-0.0213623,0.0141418,
3686,-0.00549316,0.0141235,
3688,0.0012207,0.0140381,
3690,0.0146484,0.0141052,
3692,0.0231934,0.0143188,
3694,0.0183105,0.0144714,
3696,0.00915527,0.0142761,
3698,-0.0408936,0.0146606,
3700,0.0134277,0.0147095,
3702,0.0341797,0.0149902,
3704,0.020752,0.0151306,
3706,-0.0238037,0.0151733,
3708,-0.0317383,0.0153137,
3710,0.00793457,0.0151489,
3712,0.0115967,0.0151611,
3714,-0.020752,0.0153137,
3716,0.0543213,0.0157349,
3718,0.0732422,0.0162415,
3720,-0.0982666,0.0170532,
3722,-0.00305176,0.0169373,
3724,0.0360107,0.0172852,
3726,-0.0012207,0.017157,
3728,-0.00915527,0.0169739,
3730,-0.00793457,0.0168396,
3732,-0.012207,0.0169556,
3734,0.000610352,0.0168701,
3736,-0.00549316,0.0168884,
3738,0.00854492,0.016626,
3740,0.0158691,0.0167603,
3742,0.0115967,0.0167542,
3744,0.012207,0.0167908,
3746,0.0195313,0.0169189,
3748,0.0146484,0.0166992,
3750,-0.0115967,0.0167236,
3752,0.0219727,0.0168335,
3754,0.0164795,0.0168762,
3756,0.00793457,0.0167664,
3758,0.00854492,0.0166748,
3760,0.0445557,0.017041,
3762,0.0292969,0.0172546,
3764,-0.0646973,0.0176941,
3766,0.0616455,0.0179871,
3768,0.0158691,0.0176208,
3770,-0.00610352,0.0176758,
3772,0,0.0175842,
3774,0.00610352,0.0176453,
3776,0.012207,0.0175842,
3778,-0.0506592,0.0179932,
3780,-0.00854492,0.0179016,
3782,-0.0012207,0.0176758,
3784,-0.000610352,0.0176514,
3786,-0.0115967,0.017688,
3788,-0.0244141,0.017865,
3790,-0.00488281,0.0178833,
3792,0.00183105,0.0178833,
3794,0.0286865,0.0181641,
3796,-0.0213623,0.018219,
3798,0.00976563,0.0183105,
3800,0.0463867,0.0187683,
3802,-0.0323486,0.0190857,
3804,-0.00732422,0.0191162,
3806,-0.0213623,0.0192749,
3808,0.000610352,0.0192688,
3810,-0.0195313,0.0193237,
3812,-0.00610352,0.0193787,
3814,0.0238037,0.0195862,
3816,-0.0811768,0.0203064,
3818,0.0292969,0.0204041,
3820,0.0402832,0.0207947,
3822,-0.057373,0.0211914,
3824,0.00305176,0.0212036,
3826,-0.020752,0.0208801,
3828,-0.0195313,0.0208008,
3830,-0.0164795,0.0205627,
3832,-0.0231934,0.0206726,
3834,-0.0128174,0.0206116,
3836,-0.0170898,0.0205261,
3838,-0.00305176,0.0200928,
3840,0.0878906,0.0206238,
3842,0.0384521,0.0209167,
3844,-0.129395,0.0221252,
3846,0.0543213,0.0226135,
3848,0.0286865,0.0227417,
3850,-0.0115967,0.0224609,
3852,-0.00915527,0.0224487,
3854,-0.0512695,0.0227295,
3856,-0.0292969,0.0229492,
3858,0.0158691,0.0227966,
3860,0.012207,0.0228638,
3862,-0.0177002,0.0228394,
3864,0.000610352,0.0225586,
3866,0.0311279,0.0228577,
3868,0.00915527,0.0226318,
3870,0.00671387,0.0224304,
3872,0.0415039,0.0223938,
3874,-0.0463867,0.0228455,
3876,-0.0146484,0.0227722,
3878,0.0158691,0.0228943,
3880,-0.00244141,0.0229004,
3882,-0.0177002,0.0230652,
3884,-0.0299072,0.0231506,
3886,0.0268555,0.0233643,
3888,-0.0311279,0.0236633,
3890,-0.0427246,0.0239441,
3892,0.022583,0.023938,
3894,0.00488281,0.0238037,
3896,-0.0164795,0.023877,
3898,-0.0183105,0.0236511,
3900,0,0.0235168,
3902,-0.00854492,0.0232605,
3904,-0.0238037,0.023291,
3906,0.00244141,0.0230774,
3908,0.0140381,0.0229004,
3910,0.00244141,0.0228455,
3912,-0.00854492,0.0228149,
3914,-0.00244141,0.0226318,
3916,0.0189209,0.0222778,
3918,0.0500488,0.0220459,
3920,-0.0366211,0.0214294,
3922,-0.00732422,0.0214722,
3924,0.0323486,0.0214355,
3926,0.0292969,0.0217163,
3928,-0.0292969,0.0219177,
3930,-0.03479,0.0221863,
3932,-0.00854492,0.0221497,
3934,-0.00488281,0.0221924,
3936,0.0360107,0.0224976,
3938,0.0439453,0.0228516,
3940,-0.0128174,0.022821,
3942,0.0567627,0.0232727,
3944,0.0152588,0.0233032,
3946,-0.0183105,0.023291,
3948,0.0354004,0.0234985,
3950,0.0177002,0.0235596,
3952,0.00366211,0.0233765,
3954,-0.0787354,0.023999,
3956,-0.00732422,0.0239929,
3958,0.020752,0.024115,
3960,0.0164795,0.0238342,
3962,0.090332,0.0244446,
3964,0.043335,0.024231,
3966,0.0878906,0.0244934,
3968,0.111084,0.0254456,
3970,-0.043335,0.0258179,
3972,-0.0323486,0.0261414,
3974,0.0506592,0.0265869,
3976,-0.00732422,0.0265381,
3978,-0.106812,0.0270996,
3980,-0.142822,0.0284424,
3982,-0.0732422,0.0291626,
3984,0.0634766,0.0297913,
3986,-0.0286865,0.0299622,
3988,-0.127563,0.0309937,
3990,-0.0146484,0.0310913,
3992,0.065918,0.0317322,
3994,-0.0494385,0.0319397,
3996,-0.0408936,0.032135,
3998,-0.00915527,0.0321289,
4000,-0.0164795,0.0318298,
4002,0.0543213,0.0320496,
4004,0.125732,0.0332336,
4006,0.0354004,0.033374,
4008,0.0317383,0.0336853,
4010,0.111084,0.0346008,
4012,0.101318,0.035553,
4014,0.0897217,0.0362122,
4016,0.0769043,0.0361694,
4018,0.0579834,0.0364563,
4020,0.108643,0.0371399,
4022,-0.0268555,0.0368347,
4024,-0.03479,0.0371521,
4026,0.233154,0.0392761,
4028,0.102539,0.0401062,
4030,0.181885,0.0417603,
4032,0.106812,0.0425964,
4034,-0.252075,0.044989,
4036,-0.0689697,0.0455078,
4038,0.0390625,0.0458679,
4040,-0.0756836,0.0457458,
4042,-0.136719,0.0467285,
4044,-0.133667,0.0467712,
4046,-0.140991,0.0476379,
4048,-0.0842285,0.0481934,
4050,0.0158691,0.0482361,
4052,0.114746,0.049292,
4054,-0.0720215,0.0494995,
4056,-0.177002,0.0509766,
4058,-0.00854492,0.0509033,
4060,-0.0634766,0.051416,
4062,-0.133667,0.0525757,
4064,-0.0762939,0.0533325,
4066,-0.0970459,0.0539917,
4068,-0.122681,0.055127,
4070,-0.032959,0.0553894,
4072,0.0683594,0.055658,
4074,0.0720215,0.0559143,
4076,-0.00854492,0.0558533,
4078,-0.0683594,0.0563782,
4080,0.000610352,0.0563599,
4082,0.00427246,0.0562256,
4084,0.00610352,0.0559875,
4086,-0.0842285,0.0565613,
4088,0.144653,0.0576965,
4090,-0.0183105,0.0574524,
4092,-0.0653076,0.0578796,
4094,0.0695801,0.0585266,
4096,-0.0384521,0.0587463,
4098,-0.000610352,0.0585693,
4100,0.154419,0.0601135,
4102,-0.0585938,0.060614,
4104,-0.148926,0.0618652,
4106,-0.0262451,0.0621033,
4108,-0.0445557,0.0624084,
4110,-0.00244141,0.0624084,
4112,-0.131226,0.0636353,
4114,-0.125732,0.0648682,
4116,0.0622559,0.0653015,
4118,-0.182495,0.066626,
4120,-0.00976563,0.0663574,
4122,0.0323486,0.0666077,
4124,0.00732422,0.0663574,
4126,0.117798,0.0672424,
4128,-0.0524902,0.0674744,
4130,-0.0317383,0.0674438,
4132,0.0372314,0.0677307,
4134,0.0183105,0.067865,
4136,0.0274658,0.0677795,
4138,-0.00366211,0.0673767,
4140,-0.0830078,0.0680786,
4142,-0.0372314,0.0678833,
4144,-0.15564,0.0692871,
4146,-0.0854492,0.0699585,
4148,-0.0457764,0.0700623,
4150,0.00671387,0.0699524,
4152,0.0512695,0.0704285,
4154,-0.119629,0.0708374,
4156,-0.0152588,0.0709167,
4158,0.0915527,0.0716248,
4160,0.137939,0.0728394,
4162,0.137329,0.0733093,
4164,0.00732422,0.0729492,
4166,-0.0366211,0.0724365,
4168,-0.0683594,0.0720093,
4170,0.158691,0.0731628,
4172,-0.0256348,0.0730957,
4174,0.188599,0.0744751,
4176,-0.366821,0.0780701,
4178,-0.0616455,0.0776184,
4180,0.195923,0.0781494,
4182,-0.106201,0.078479,
4184,-0.0634766,0.078479,
4186,-0.194092,0.0801331,
4188,-0.20752,0.0809326,
4190,-0.020752,0.0809937,
4192,-0.0158691,0.0804932,
4194,-0.10376,0.0810364,
4196,-0.0500488,0.0811279,
4198,-0.057373,0.0816101,
4200,0.00244141,0.0814697,
4202,0.101318,0.0819397,
4204,0.0213623,0.080896,
4206,0.0482178,0.0810242,
4208,-0.123901,0.0819458,
4210,0.0494385,0.0813293,
4212,0.00915527,0.0804077,
4214,-0.0531006,0.0800415,
4216,0.0488281,0.0797607,
4218,-0.0299072,0.07948,
4220,0.0244141,0.0786377,
4222,-0.13916,0.0797607,
4224,0.17395,0.0811523,
4226,0.134277,0.0801636,
4228,-0.3125,0.0822632,
4230,0.0915527,0.0813599,
4232,0.0848389,0.0811401,
4234,-0.00915527,0.0787109,
4236,-0.107422,0.0790955,
4238,0.00610352,0.0787659,
4240,-0.125732,0.0792664,
4242,-0.0744629,0.0786438,
4244,-0.0744629,0.0780518,
4246,0.0653076,0.0772949,
4248,0.114136,0.077594,
4250,0.0280762,0.0777161,
4252,0.125122,0.0778198,
4254,-0.219116,0.0792908,
4256,0.15686,0.0790894,
4258,-0.0537109,0.079541,
4260,-0.00671387,0.0789734,
4262,-0.0140381,0.0777771,
4264,-0.209351,0.0791077,
4266,-0.149536,0.0796326,
4268,0.0860596,0.0792664,
4270,-0.157471,0.0805115,
4272,-0.043335,0.0802612,
4274,0.140381,0.0809448,
4276,0.111084,0.0819702,
4278,0.0799561,0.0820862,
4280,-0.0616455,0.0826965,
4282,0,0.0826538,
4284,0.00976563,0.0826904,
4286,-0.0396729,0.0822449,
4288,-0.0860596,0.0816589,
4290,-0.106812,0.0825439,
4292,-0.088501,0.0827759,
4294,-0.0921631,0.0830017,
4296,0.00488281,0.082666,
4298,-0.202026,0.0846802,
4300,-0.140991,0.0845459,
4302,0.137939,0.0853394,
4304,0.107422,0.0849243,
4306,0.00549316,0.0847168,
4308,0.0646973,0.0849182,
4310,-0.147705,0.0863708,
4312,0.0823975,0.0858826,
4314,0.0891113,0.0855164,
4316,-0.123901,0.0861328,
4318,0.00427246,0.0843506,
4320,-0.117188,0.0854248,
4322,-0.119629,0.0862976,
4324,-0.162354,0.0878479,
4326,-0.0738525,0.0874084,
4328,0.0231934,0.0871155,
4330,-0.03479,0.087146,
4332,-0.0219727,0.0869934,
4334,-0.0610352,0.0874207,
4336,0.117188,0.0883179,
4338,0.0299072,0.0885803,
4340,-0.057373,0.088324,
4342,0.00793457,0.088031,
4344,0.0274658,0.0867493,
4346,0.0421143,0.0863159,
4348,0.0756836,0.086615,
4350,-0.0518799,0.0870667,
4352,-0.0549316,0.0871033,
4354,0.109253,0.0869995,
4356,-0.0134277,0.0869812,
4358,0.0311279,0.086377,
4360,0.0866699,0.0858643,
4362,-0.178833,0.0862793,
4364,-0.0750732,0.0869568,
4366,0.0292969,0.0868835,
4368,0,0.0862,
4370,-0.0842285,0.0854553,
4372,-0.114136,0.0863403,
4374,-0.0512695,0.084967,
4376,-0.0366211,0.081665,
4378,-0.0531006,0.0815796,
4380,-0.0732422,0.0803528,
4382,0.00915527,0.0793823,
4384,0.118408,0.0799316,
4386,-0.0219727,0.0782104,
4388,-0.0549316,0.0766846,
4390,0.057373,0.0770508,
4392,0.148315,0.0783752,
4394,-0.142212,0.0787598,
4396,-0.0665283,0.0789246,
4398,0.00732422,0.0784241,
4400,0.00976563,0.0784973,
4402,-0.00244141,0.0775085,
4404,0.0213623,0.0775085,
4406,-0.00244141,0.0770508,
4408,-0.00732422,0.075885,
4410,0.0134277,0.0755249,
4412,0.0671387,0.0761047,
4414,0.0604248,0.076178,
4416,0.132446,0.0770142,
4418,-0.0817871,0.077533,
4420,-0.0323486,0.0776123,
4422,0.0830078,0.0770508,
4424,0.0732422,0.0760437,
4426,0.17334,0.0764343,
4428,-0.141602,0.0747253,
4430,0.0311279,0.0741211,
4432,-0.0775146,0.0740479,
4434,0.0238037,0.0741943,
4436,0.0744629,0.0738647,
4438,0.169678,0.0755005,
4440,-0.209351,0.0763367,
4442,-0.00549316,0.075647,
4444,0.0610352,0.0755127,
4446,0.0305176,0.0751648,
4448,0.0811768,0.0748352,
4450,-0.0360107,0.0749146,
4452,-0.0653076,0.0743164,
4454,0.0146484,0.0722717,
4456,-0.0335693,0.0710388,
4458,-0.0317383,0.0708191,
4460,0.0860596,0.0716125,
4462,-0.108032,0.0725525,
4464,-0.0872803,0.0713318,
4466,0.0299072,0.0701355,
4468,-0.00244141,0.0692993,
4470,0.0457764,0.0681824,
4472,0.0921631,0.0686707,
4474,-0.134888,0.0686157,
4476,0.194092,0.0694458,
4478,0.00427246,0.068689,
4480,-0.0848389,0.0689209,
4482,0.0756836,0.0696777,
4484,-0.0610352,0.0701904,
4486,-0.0115967,0.0699097,
4488,-0.0421143,0.0694702,
4490,-0.0170898,0.068573,
4492,-0.0311279,0.0679993,
4494,0.0158691,0.0672363,
4496,0.122681,0.0684143,
4498,0.0164795,0.0665588,
4500,-0.0714111,0.065863,
4502,0.0579834,0.0650635,
4504,0.136719,0.0653564,
4506,-0.0402832,0.0657043,
4508,-0.0994873,0.0660522,
4510,0.0598145,0.0651733,
4512,-0.0909424,0.0652588,
4514,0.00732422,0.0644409,
4516,0.0695801,0.0638977,
4518,-0.0726318,0.0645813,
4520,-0.0335693,0.0637451,
4522,-0.0262451,0.0628113,
4524,-0.00244141,0.0612122,
4526,0.065918,0.0611328,
4528,-0.0720215,0.0616211,
4530,0.00244141,0.0612976,
4532,0.100098,0.0620789,
4534,-0.0695801,0.0621643,
4536,0.0469971,0.0614624,
4538,-0.00488281,0.0612122,
4540,0.0177002,0.0608154,
4542,0.0286865,0.0610229,
4544,0.0341797,0.0610901,
4546,-0.0164795,0.0608337,
4548,-0.00732422,0.0601501,
4550,0.022583,0.0598572,
4552,0.0134277,0.0594421,
4554,0.0378418,0.058728,
4556,0.0268555,0.0588623,
4558,0.0341797,0.0588928,
4560,0.0408936,0.0584351,
4562,0.0170898,0.0568176,
4564,-0.0286865,0.0563538,
4566,0.0134277,0.0561951,
4568,0.0115967,0.056311,
4570,-0.0183105,0.0556519,
4572,-0.0219727,0.0547302,
4574,-0.0183105,0.0544006,
4576,0.00427246,0.0540771,
4578,-0.00549316,0.0536011,
4580,0.0561523,0.0534302,
4582,0.134888,0.0546875,
4584,-0.0463867,0.0539673,
4586,-0.0164795,0.0539124,
4588,0.0152588,0.0535156,
4590,-0.0311279,0.0532532,
4592,0.00976563,0.0518677,
4594,-0.00427246,0.0504883,
4596,-0.130005,0.051123,
4598,-0.0592041,0.0516418,
4600,0.0177002,0.0517212,
4602,0.0109863,0.0518066,
4604,0.0115967,0.051709,
4606,0.00549316,0.0517395,
4608,-0.0360107,0.0520264,
4610,-0.0299072,0.0521912,
4612,-0.0177002,0.0516968,
4614,0.0384521,0.0514771,
4616,0.0421143,0.0505737,
4618,-0.115967,0.0509155,
4620,-0.0115967,0.050708,
4622,0.123291,0.0511108,
4624,-0.0500488,0.0508789,
4626,-0.0494385,0.0496399,
4628,0.110474,0.0493286,
4630,-0.0616455,0.0496338,
4632,-0.0201416,0.0490601,
4634,0.0128174,0.0489502,
4636,0.0390625,0.0485962,
4638,-0.130615,0.0482056,
4640,0.0317383,0.0464294,
4642,-0.00732422,0.0464478,
4644,-0.0372314,0.0462097,
4646,-0.0164795,0.0460693,
4648,-0.0183105,0.0454407,
4650,-0.00183105,0.0450989,
4652,0.0012207,0.044458,
4654,0.00488281,0.0443604,
4656,-0.0189209,0.0442139,
4658,-0.0128174,0.0440247,
4660,0.0189209,0.0433533,
4662,0.0262451,0.0425354,
4664,-0.00793457,0.0417419,
4666,-0.00793457,0.0415222,
4668,0.0866699,0.0423645,
4670,0.0384521,0.0422913,
4672,-0.0872803,0.0422424,
4674,0.0341797,0.0412354,
4676,0.0738525,0.040033,
4678,0.0146484,0.0401367,
4680,-0.0946045,0.0402344,
4682,0.00244141,0.039502,
4684,-0.0109863,0.0390015,
4686,-0.0195313,0.0390808,
4688,-0.0323486,0.0389832,
4690,0.067749,0.0394897,
4692,-0.0915527,0.040094,
4694,0.0195313,0.0401306,
4696,-0.00732422,0.0389771,
4698,0.0427246,0.0392395,
4700,0.0183105,0.0387085,
4702,-0.00549316,0.0381836,
4704,0.0152588,0.036969,
4706,-0.0115967,0.0366821,
4708,-0.0622559,0.0363098,
4710,0.0567627,0.0362793,
4712,0.00732422,0.0354431,
4714,-0.0292969,0.0356628,
4716,0.0524902,0.0354919,
4718,-0.078125,0.0355469,
4720,-0.0378418,0.0355896,
4722,0.0469971,0.0357971,
4724,0.15625,0.0373352,
4726,-0.126953,0.0379456,
4728,-0.0396729,0.0376221,
4730,0.0421143,0.0380188,
4732,0.00305176,0.0370483,
4734,-0.0402832,0.0367554,
4736,-0.0262451,0.0365479,
4738,-0.0366211,0.0368652,
4740,-0.0268555,0.0369568,
4742,0.0152588,0.0368225,
4744,-0.0396729,0.0368774,
4746,0.000610352,0.0367187,
4748,0.0579834,0.0372253,
4750,-0.0427246,0.0374268,
4752,0.0384521,0.037677,
4754,-0.0299072,0.0375977,
4756,-0.032959,0.0376587,
4758,0.00366211,0.0373535,
4760,0.0152588,0.0370972,
4762,-0.0439453,0.0373657,
4764,0.0305176,0.037384,
4766,-0.00244141,0.0372742,
4768,-0.0531006,0.0376892,
4770,0.0689697,0.0381958,
4772,-0.0518799,0.0384949,
4774,0.03479,0.0386597,
4776,-0.0488281,0.0391052,
4778,-0.0384521,0.0394348,
4780,0.0012207,0.0388855,
4782,-0.0354004,0.0378906,
4784,-0.0354004,0.0377808,
4786,0.00549316,0.0376709,
4788,-0.00427246,0.037561,
4790,0.0585938,0.0378357,
4792,0.043335,0.0381714,
4794,-0.0616455,0.0387451,
4796,0.127563,0.0387207,
4798,-0.00488281,0.0381775,
4800,-0.10437,0.0390442,
4802,0.0250244,0.0391846,
4804,-0.00793457,0.0391479,
4806,-0.0421143,0.0395142,
4808,-0.0439453,0.0395935,
4810,-0.0488281,0.0397827,
4812,-0.0292969,0.0398987,
4814,-0.0115967,0.0396301,
4816,0.00732422,0.0392822,
4818,0.0109863,0.0382324,
4820,0.00488281,0.0381653,
4822,0.020752,0.0371399,
4824,0.0360107,0.0369995,
4826,-0.0177002,0.0366821,
4828,-0.00305176,0.0356079,
4830,0.0250244,0.0352417,
4832,-0.00610352,0.0351013,
4834,0.00671387,0.0350403,
4836,0.0653076,0.0353027,
4838,-0.0262451,0.034259,
4840,-0.0482178,0.0344238,
4842,0.0488281,0.0348389,
4844,-0.00671387,0.0345337,
4846,0.0219727,0.0345886,
4848,0.0402832,0.0348083,
4850,-0.0921631,0.0357117,
4852,-0.0201416,0.0359009,
4854,0.00427246,0.0358948,
4856,-0.0012207,0.0357178,
4858,-0.0170898,0.0357605,
4860,-0.00366211,0.0356079,
4862,-0.00305176,0.035376,
4864,0.0616455,0.0359131,
4866,-0.012207,0.0359558,
4868,-0.022583,0.0353149,
4870,0.0469971,0.0354004,
4872,0.0408936,0.0349365,
4874,-0.0921631,0.0355164,
4876,0.0146484,0.0349243,
4878,-0.00732422,0.0348511,
4880,0.00610352,0.0339661,
4882,0.0671387,0.034613,
4884,-0.139771,0.0359009,
4886,0.00976563,0.0358032,
4888,0.0262451,0.0357422,
4890,-0.00244141,0.0350891,
4892,-0.0292969,0.0344666,
4894,-0.0195313,0.0344666,
4896,-0.0274658,0.034668,
4898,-0.0152588,0.0343933,
4900,0.00183105,0.0342285,
4902,0.0189209,0.0343628,
4904,0.0140381,0.0343506,
4906,-0.0415039,0.0346497,
4908,0.00915527,0.0341187,
4910,0.020752,0.0337585,
4912,-0.0354004,0.0340393,
4914,-0.0244141,0.0339905,
4916,-0.012207,0.0335876,
4918,-0.022583,0.0330322,
4920,0.00427246,0.0326965,
4922,-0.0177002,0.0324036,
4924,-0.0390625,0.0312317,
4926,0.0427246,0.0303894,
4928,-0.032959,0.0303223,
4930,-0.0164795,0.0300659,
4932,-0.000610352,0.0300415,
4934,0.00183105,0.029657,
4936,0.0537109,0.0299316,
4938,-0.0634766,0.0302002,
4940,-0.022583,0.0301575,
4942,0.0396729,0.0304016,
4944,0.00549316,0.0300598,
4946,0.00488281,0.0301025,
4948,-0.0427246,0.02995,
4950,-0.0201416,0.0297241,
4952,0.00549316,0.0293945,
4954,-0.010376,0.0291992,
4956,-0.0183105,0.0290527,
4958,0.0354004,0.0293701,
4960,0.0402832,0.0296204,
4962,-0.0750732,0.0299316,
4964,0.0958252,0.0305847,
4966,0.0616455,0.0311768,
4968,-0.111694,0.0317627,
4970,0.0598145,0.0316711,
4972,0.0213623,0.031366,
4974,-0.0848389,0.0318665,
4976,0.00305176,0.0314087,
4978,-0.020752,0.0312317,
4980,-0.0286865,0.0315063,
4982,-0.0250244,0.0314026,
4984,-0.00671387,0.0311157,
4986,-0.0170898,0.0312317,
4988,0.0415039,0.031604,
4990,0.0158691,0.0311768,
4992,-0.065918,0.0314026,
4994,0.00305176,0.0308167,
4996,0.00915527,0.0296326,
4998,-0.0183105,0.0297668,
5000,-0.0262451,0.0289856,
5002,-0.0183105,0.0289185,
5004,0.0195313,0.0290344,
5006,0.000610352,0.0286194,
5008,-0.0549316,0.0287292,
5010,0.022583,0.0284668,
5012,0.00305176,0.0282043,
5014,0.00488281,0.0281372,
5016,-0.0262451,0.0283264,
5018,-0.0146484,0.028363,
5020,-0.00854492,0.0283997,
5022,-0.0140381,0.0283325,
5024,-0.00671387,0.0280396,
5026,0.0494385,0.0283569,
5028,0.0640869,0.0289673,
5030,-0.0701904,0.0294189,
5032,-0.0164795,0.0295227,
5034,0.0360107,0.0298157,
5036,0.00854492,0.029248,
5038,-0.0170898,0.0291565,
5040,-0.0360107,0.0290344,
5042,-0.0201416,0.0287476,
5044,-0.00549316,0.0287354,
5046,0.00976563,0.0286133,
5048,0.0286865,0.0284973,
5050,0.0274658,0.0278503,
5052,0.0622559,0.0282715,
5054,0.0219727,0.0284485,
5056,0.0402832,0.0288391,
5058,0.0604248,0.0292725,
5060,0.0323486,0.0295593,
5062,-0.010376,0.0296326,
5064,0.0531006,0.0295471,
5066,-0.0292969,0.029718,
5068,-0.0317383,0.0298096,
5070,0.122681,0.0305664,
5072,-0.0506592,0.0306641,
5074,-0.119629,0.0309387,
5076,0.0701904,0.0314941,
5078,0.0506592,0.0319275,
5080,0.00732422,0.0319397,
5082,-0.0476074,0.0317444,
5084,-0.0146484,0.0304932,
5086,0.0286865,0.0306824,
5088,0.0195313,0.0306152,
5090,-0.0115967,0.0307068,
5092,0.00244141,0.0304382,
5094,-0.00244141,0.0302673,
5096,0.00366211,0.0300293,
5098,-0.0408936,0.0302856,
5100,-0.0476074,0.0307434,
5102,0.0750732,0.0313049,
5104,0.0402832,0.0315674,
5106,0.0366211,0.0315186,
5108,-0.0836182,0.0322632,
5110,0.065918,0.0327148,
5112,0.0720215,0.0330811,
5114,-0.012207,0.032959,
5116,0.0933838,0.0337708,
5118,-0.0628662,0.0341736,
5120,-0.0140381,0.0342712,
5122,0.0238037,0.0343323,
5124,0.020752,0.0341492,
5126,0.0836182,0.0345581,
5128,0.0994873,0.0352234,
5130,0.0427246,0.0354858,
5132,0.0854492,0.0363342,
5134,0.165405,0.03797,
5136,0.010376,0.0375366,
5138,-0.117798,0.0380798,
5140,0.0146484,0.0380005,
5142,0.0366211,0.03797,
5144,-0.0732422,0.0386475,
5146,-0.376587,0.0423645,
5148,-0.137329,0.0433105,
5150,-0.0952148,0.0440613,
5152,-0.157471,0.0455811,
5154,-0.128784,0.0467651,
5156,-0.159912,0.0481812,
5158,-0.118408,0.0490112,
5160,-0.0360107,0.0489685,
5162,0.0146484,0.0483643,
5164,0.108643,0.0484924,
5166,-0.0274658,0.0481506,
5168,-0.115967,0.0481934,
5170,0.109253,0.0486877,
5172,0.00610352,0.0485352,
5174,-0.0848389,0.0485352,
5176,-0.0268555,0.0487732,
5178,-0.0842285,0.049408,
5180,-0.112305,0.0502441,
5182,-0.0811768,0.0508057,
5184,0.0244141,0.0509827,
5186,0.00488281,0.0508606,
5188,0.0946045,0.0513916,
5190,0.139771,0.0526306,
5192,0.0189209,0.0521606,
5194,0.0769043,0.0528992,
5196,0.131226,0.0541199,
5198,-0.00305176,0.0539673,
5200,0.0280762,0.0539856,
5202,-0.0354004,0.0541565,
5204,-0.0640869,0.0546021,
5206,-0.0164795,0.0547607,
5208,-0.113525,0.0553467,
5210,-0.0878906,0.0559998,
5212,-0.0439453,0.0564087,
5214,0.0109863,0.0564697,
5216,0.0341797,0.0565491,
5218,0.022583,0.0566284,
5220,-0.162964,0.0581726,
5222,0.203857,0.0600708,
5224,0.162964,0.0616333,
5226,-0.0640869,0.0617798,
5228,-0.090332,0.0620422,
5230,-0.0567627,0.061908,
5232,0.00610352,0.0618042,
5234,0.00366211,0.0614807,
5236,-0.067749,0.0620728,
5238,-0.126343,0.0631653,
5240,-0.0372314,0.0631775,
5242,-0.111084,0.0640869,
5244,-0.0299072,0.0643311,
5246,0.0970459,0.0652039,
5248,-0.057373,0.0654907,
5250,-0.0585938,0.065802,
5252,0.0427246,0.0656067,
5254,0.189209,0.0672791,
5256,-0.128784,0.0681641,
5258,-0.0744629,0.0683044,
5260,0.126343,0.0692444,
5262,-0.0469971,0.0696106,
5264,-0.0378418,0.069458,
5266,0.0341797,0.0695068,
5268,0.0482178,0.0696716,
5270,-0.0634766,0.0690796,
5272,0.186768,0.0704407,
5274,0.206299,0.0713074,
5276,-0.0305176,0.0709106,
5278,-0.0195313,0.0705994,
5280,-0.0805664,0.0713318,
5282,0.0939941,0.0717957,
5284,0.0842285,0.0724915,
5286,0.022583,0.0724304,
5288,-0.36377,0.0758728,
5290,-0.0830078,0.0765869,
5292,0.145264,0.0780151,
5294,0.0854492,0.0788452,
5296,-0.0939941,0.0797485,
5298,0.0134277,0.0794739,
5300,0.055542,0.0795532,
5302,0.0262451,0.0790649,
5304,-0.0421143,0.0790833,
5306,0.0286865,0.0790039,
5308,-0.0134277,0.078302,
5310,-0.0292969,0.0779358,
5312,-0.0335693,0.0775513,
5314,0.00671387,0.0774963,
5316,-0.162354,0.078186,
5318,-0.0463867,0.0780212,
5320,-0.127563,0.0791565,
5322,-0.158691,0.0805054,
5324,-0.128784,0.0815857,
5326,-0.0756836,0.0815063,
5328,-0.0537109,0.0810486,
5330,-0.106201,0.0816833,
5332,0.00976563,0.0809265,
5334,-0.0354004,0.0796265,
5336,0.0921631,0.0804443,
5338,0.0585938,0.0798523,
5340,0.0390625,0.0800964,
5342,0.113525,0.0808655,
5344,0.000610352,0.0801392,
5346,-0.0512695,0.076886,
5348,-0.0170898,0.0756836,
5350,0.0958252,0.0756897,
5352,-0.0109863,0.0742249,
5354,-0.130005,0.0742371,
5356,0.00183105,0.0726563,
5358,-0.0335693,0.0718079,
5360,0.0750732,0.0721985,
5362,0.0518799,0.0725708,
5364,0.0384521,0.0718689,
5366,-0.0524902,0.0721191,
5368,-0.0695801,0.0716553,
5370,0.00610352,0.0706238,
5372,-0.00915527,0.0706543,
5374,-0.0561523,0.0703674,
5376,0.0427246,0.0705261,
5378,-0.0823975,0.0705078,
5380,-0.0408936,0.0697937,
5382,0.123291,0.0702148,
5384,0.00732422,0.0700439,
5386,0.0250244,0.0702454,
5388,0.0183105,0.0694824,
5390,-0.022583,0.0683105,
5392,0.134888,0.0694702,
5394,0.0909424,0.0696106,
5396,-0.0518799,0.0688171,
5398,-0.181274,0.0705994,
5400,0.0842285,0.0711609,
5402,0.0909424,0.0717163,
5404,-0.134888,0.0724243,
5406,-0.0836182,0.0730957,
5408,0.0439453,0.0723999,
5410,-0.032959,0.0718506,
5412,-0.0317383,0.0717285,
5414,-0.0256348,0.071875,
5416,-0.0616455,0.0721497,
5418,0.0115967,0.0720398,
5420,-0.0592041,0.0710022,
5422,0.0494385,0.069458,
5424,-0.0183105,0.0680115,
5426,-0.176392,0.0691345,
5428,-0.012207,0.0683533,
5430,0.101929,0.0688049,
5432,-0.175171,0.0704956,
5434,-0.0683594,0.0711426,
5436,0.00549316,0.07052,
5438,0.0128174,0.0693848,
5440,-0.148926,0.0705017,
5442,0.0531006,0.0699219,
5444,0.0311279,0.0699341,
5446,-0.0524902,0.0694885,
5448,-0.0305176,0.06922,
5450,-0.0012207,0.0686462,
5452,0.105591,0.0692749,
5454,0.107422,0.068457,
5456,-0.067749,0.0678467,
5458,0.0354004,0.0674561,
5460,-0.0305176,0.0664978,
5462,-0.00610352,0.0660889,
5464,-0.0189209,0.0658997,
5466,0.0384521,0.0659424,
5468,-0.0714111,0.0661743,
5470,0.0854492,0.066394,
5472,0.0482178,0.0650085,
5474,-0.00854492,0.063031,
5476,0.0610352,0.0633362,
5478,0.0860596,0.0640015,
5480,0.106812,0.0642639,
5482,0.000610352,0.0633301,
5484,-0.0146484,0.0626343,
5486,0.115356,0.063562,
5488,0.164185,0.0615662,
5490,-0.136719,0.0621033,
5492,0.105591,0.0617065,
5494,-0.0463867,0.0613159,
5496,0.0354004,0.06073,
5498,-0.0695801,0.0612915,
5500,0.0341797,0.0610779,
5502,-0.090332,0.0617188,
5504,-0.200195,0.0632996,
5506,-0.0012207,0.0630249,
5508,-0.0323486,0.0632141,
5510,-0.0152588,0.0630737,
5512,-0.0378418,0.0631165,
5514,-0.155029,0.0645996,
5516,-0.00793457,0.0630554,
5518,0.0897217,0.0634888,
5520,0.0744629,0.0629578,
5522,-0.0012207,0.0613831,
5524,0.0140381,0.0602356,
5526,-0.0335693,0.0598145,
5528,-0.0299072,0.0595764,
5530,0.0622559,0.059137,
5532,-0.0378418,0.0594177,
5534,-0.0415039,0.0594788,
5536,0.090332,0.0594604,
5538,-0.0390625,0.0592651,
5540,0.0305176,0.0591797,
5542,-0.0512695,0.0585571,
5544,0.13855,0.0599365,
5546,-0.0390625,0.0598145,
5548,0.10498,0.0606934,
5550,0.00854492,0.0598206,
5552,0.0811768,0.0605225,
5554,0.236206,0.0615845,
5556,-0.106201,0.0626282,
5558,-0.0848389,0.0631409,
5560,0.0842285,0.0632324,
5562,0.0976563,0.0636902,
5564,-0.0793457,0.0640991,
5566,-0.0518799,0.064093,
5568,-0.0640869,0.0640381,
5570,-0.0360107,0.0643372,
5572,-0.0378418,0.064624,
5574,0.152588,0.0655884,
5576,-0.246582,0.067627,
5578,-0.0775146,0.0675781,
5580,-0.0579834,0.067749,
5582,-0.0286865,0.066803,
5584,-0.0543213,0.0672729,
5586,-0.0457764,0.0674805,
5588,-0.0457764,0.0677551,
5590,-0.0384521,0.0679138,
5592,0.0390625,0.0669556,
5594,0.0152588,0.0661987,
5596,0.0769043,0.066449,
5598,-0.00976563,0.0647339,
5600,-0.0720215,0.0646118,
5602,-0.0732422,0.0644348,
5604,0.00915527,0.0631775,
5606,0.0830078,0.0631714,
5608,-0.162354,0.0643555,
5610,0.0366211,0.0643921,
5612,0.12207,0.0652954,
5614,0.0274658,0.0653137,
5616,-0.0653076,0.0653503,
5618,0.0274658,0.065509,
5620,-0.043335,0.0653503,
5622,0.022583,0.0650818,
5624,0.00915527,0.0649902,
5626,0.0543213,0.0637695,
5628,-0.000610352,0.0636536,
5630,0.0744629,0.0633789,
5632,0.0378418,0.0620056,
5634,-0.0756836,0.0620789,
5636,0.0482178,0.0625061,
5638,0.0592041,0.06297,
5640,-0.0164795,0.0616455,
5642,-0.148926,0.0626038,
5644,-0.0396729,0.0626892,
5646,-0.0524902,0.0626892,
5648,-0.0616455,0.0630005,
5650,-0.0408936,0.0633972,
5652,-0.0115967,0.0624573,
5654,0.0402832,0.0617859,
5656,-0.0683594,0.061792,
5658,-0.00732422,0.0615112,
5660,0.0543213,0.0617493,
5662,0.0421143,0.0621094,
5664,-0.0177002,0.0620972,
5666,-0.0189209,0.0619019,
5668,0.0250244,0.061438,
5670,0.126953,0.061853,
5672,0.113525,0.0625061,
5674,-0.213623,0.0645569,
5676,0.114746,0.065094,
5678,0.0848389,0.0650818,
5680,-0.065918,0.0646729,
5682,-0.0177002,0.0648437,
5684,0.00488281,0.0647461,
5686,-0.00854492,0.063678,
5688,-0.00244141,0.0620605,
5690,-0.0177002,0.0608704,
5692,0.0238037,0.0600525,
5694,-0.00427246,0.0596313,
5696,-0.0280762,0.0595581,
5698,0.00732422,0.0589355,
5700,0.148315,0.0600769,
5702,-0.0152588,0.0593262,
5704,-0.0378418,0.0577026,
5706,0.0238037,0.0579285,
5708,0.0653076,0.0582581,
5710,0.0366211,0.0584717,
5712,0.0518799,0.0586121,
5714,-0.0665283,0.0577271,
5716,-0.03479,0.0579956,
5718,0.0012207,0.0571106,
5720,-0.0317383,0.0566833,
5722,0.102539,0.0576965,
5724,-0.147095,0.0590271,
5726,0.0170898,0.0588623,
5728,-0.0585938,0.0591492,
5730,-0.00244141,0.058551,
5732,0.00976563,0.0582703,
5734,0.010376,0.057959,
5736,-0.00549316,0.0571106,
5738,0.0164795,0.0568848,
5740,0.0299072,0.0568787,
5742,0.0939941,0.0573059,
5744,0.0549316,0.0564697,
5746,0.0439453,0.0565186,
5748,0.012207,0.0555908,
5750,0.0195313,0.0557007,
5752,0.0280762,0.0551697,
5754,-0.00305176,0.0528381,
5756,-0.0427246,0.0522034,
5758,-0.0274658,0.0516296,
5760,-0.0341797,0.0511292,
5762,0.0427246,0.0505798,
5764,0.0189209,0.0499756,
5766,-0.0860596,0.0503174,
5768,0.0823975,0.0505005,
5770,0.0366211,0.0505066,
5772,-0.0280762,0.0504089,
5774,-0.00549316,0.048938,
5776,0.0183105,0.0466553,
5778,0.0933838,0.046814,
5780,-0.022583,0.04646,
5782,-0.0830078,0.0470032,
5784,0.0292969,0.0467529,
5786,-0.00366211,0.0463318,
5788,-0.0305176,0.0461792,
5790,0.0146484,0.0459412,
5792,0.00854492,0.045636,
5794,-0.022583,0.0457092,
5796,-0.00549316,0.0449951,
5798,0.00183105,0.0449158,
5800,0.010376,0.0442993,
5802,0.0274658,0.0438416,
5804,-0.00671387,0.0438171,
5806,0.0244141,0.0432312,
5808,0.0769043,0.0423767,
5810,0.012207,0.0421326,
5812,-0.0427246,0.0413391,
5814,0.139771,0.0424622,
5816,0.00793457,0.0418884,
5818,-0.078125,0.042395,
5820,0.10437,0.0430054,
5822,-0.0299072,0.0430786,
5824,0.0164795,0.0431519,
5826,0.00305176,0.0426392,
5828,0.0360107,0.0429932,
5830,-0.0415039,0.0426636,
5832,0.012207,0.0424072,
5834,0.0671387,0.0423218,
5836,0.0268555,0.0421082,
5838,-0.0274658,0.0417908,
5840,0.0592041,0.042218,
5842,0.0604248,0.041333,
5844,-0.129395,0.0422302,
5846,0.00732422,0.0417786,
5848,0.020752,0.0413696,
5850,-0.0128174,0.0410889,
5852,-0.00915527,0.0410645,
5854,-0.0280762,0.0409424,
5856,0.0714111,0.0409729,
5858,-0.0732422,0.0416321,
5860,0.0750732,0.0418396,
5862,0.0164795,0.0415833,
5864,0.0482178,0.0418884,
5866,0.020752,0.0419067,
5868,0.0427246,0.0420837,
5870,-0.0360107,0.0411743,
5872,0.00549316,0.040094,
5874,0.0354004,0.0383118,
5876,0.0268555,0.0374329,
5878,-0.0274658,0.0368591,
5880,-0.0231934,0.0364319,
5882,0.00976563,0.0363525,
5884,0.0189209,0.0364929,
5886,0.0366211,0.0367737,
5888,0.0213623,0.0369629,
5890,-0.0311279,0.0370972,
5892,0.0244141,0.0371033,
5894,0.0146484,0.037207,
5896,0.00976563,0.0370239,
5898,0.0195313,0.037146,
5900,0.0836182,0.036499,
5902,0.0335693,0.0366821,
5904,-0.126953,0.0375732,
5906,0.0445557,0.0377808,
5908,0.0476074,0.0376038,
5910,0.0292969,0.0375305,
5912,-0.0183105,0.0371948,
5914,-0.10376,0.0375671,
5916,0.0366211,0.0375854,
5918,0.0769043,0.0383423,
5920,-0.0280762,0.0383057,
5922,-0.0463867,0.0377441,
5924,0.0177002,0.0364502,
5926,0.0109863,0.0363892,
5928,0.0695801,0.036499,
5930,0.0292969,0.0367676,
5932,-0.0817871,0.0374878,
5934,0.0531006,0.037915,
5936,0.128784,0.0391479,
5938,-0.112915,0.0401123,
5940,0.0134277,0.0399475,
5942,0.0897217,0.0399048,
5944,-0.0476074,0.0398315,
5946,-0.043335,0.0398254,
5948,-0.0518799,0.0402222,
5950,-0.0238037,0.0402649,
5952,-0.0201416,0.0401855,
5954,-0.0299072,0.0404541,
5956,-0.0170898,0.0401978,
5958,-0.0134277,0.0400574,
5960,0.00427246,0.0397583,
5962,0.0140381,0.0394714,
5964,0.0115967,0.0393982,
5966,0.0689697,0.0392273,
5968,-0.0128174,0.0385315,
5970,-0.0158691,0.038324,
5972,0.100708,0.0390503,
5974,0.0335693,0.0393311,
5976,-0.057373,0.0397217,
5978,0.0317383,0.0391052,
5980,0.0793457,0.0396729,
5982,0.00854492,0.0389282,
5984,-0.0915527,0.0395508,
5986,0.0366211,0.0398804,
5988,0.0689697,0.0402649,
5990,-0.0665283,0.0407837,
5992,-0.0390625,0.0410889,
5994,0,0.040863,
5996,-0.00427246,0.0408508,
5998,-0.0177002,0.0410095,
6000,0.0109863,0.0410156,
6002,0.100708,0.041748,
6004,0.0134277,0.0418152,
6006,-0.0952148,0.0425232,
6008,0.0671387,0.0424255,
6010,0.113525,0.0434387,
6012,0.0689697,0.0437012,
6014,-0.111084,0.0434143,
6016,0.110474,0.0444397,
6018,-0.088501,0.0445435,
6020,-0.00732422,0.043573,
6022,0.0128174,0.0434021,
6024,0.0012207,0.0432495,
6026,-0.0640869,0.0438599,
6028,-0.032959,0.0438293,
6030,-0.0183105,0.0435974,
6032,-0.0183105,0.0436584,
6034,0.0012207,0.0429993,
6036,0.000610352,0.0427368,
6038,0.00244141,0.0424866,
6040,0.00183105,0.0419128,
6042,-0.0012207,0.0413208,
6044,0.00915527,0.0401184,
6046,0.0561523,0.0406067,
6048,0.020752,0.0406067,
6050,-0.0836182,0.0413147,
6052,0.043335,0.0416565,
6054,0.00366211,0.0414124,
6056,-0.0152588,0.0408508,
6058,-0.0170898,0.0402893,
6060,-0.0115967,0.0396545,
6062,-0.0128174,0.0396179,
6064,0.000610352,0.0391418,
6066,0.150146,0.0404358,
6068,-0.0506592,0.0405151,
6070,-0.111694,0.041272,
6072,0.0701904,0.0419189,
6074,0.0256348,0.0418213,
6076,-0.0189209,0.0417419,
6078,-0.0500488,0.0419678,
6080,-0.0274658,0.0420105,
6082,-0.0238037,0.0421509,
6084,-0.0317383,0.0422791,
6086,0.0366211,0.0422791,
6088,-0.010376,0.0421692,
6090,0.0628662,0.0424866,
6092,0.0897217,0.0431396,
6094,-0.0787354,0.0437805,
6096,-0.0170898,0.0438538,
6098,0.0805664,0.0444641,
6100,0.010376,0.0437317,
6102,-0.0561523,0.0439575,
6104,0.00915527,0.0427795,
6106,-0.00366211,0.0423706,
6108,-0.0469971,0.0423645,
6110,0.00549316,0.0421265,
6112,-0.000610352,0.0419495,
6114,-0.0012207,0.0409241,
6116,0.0463867,0.0410217,
6118,0.159302,0.0418457,
6120,-0.194092,0.0435059,
6122,0.0109863,0.0431519,
6124,0.0640869,0.0436157,
6126,0.0152588,0.0436584,
6128,-0.00610352,0.0430237,
6130,-0.0311279,0.043042,
6132,0.00366211,0.0422607,
6134,-0.0250244,0.04198,
6136,-0.0439453,0.0411316,
6138,0.0622559,0.040625,
6140,-0.00854492,0.0405762,
6142,-0.0164795,0.0398437,
6144,0.146484,0.0408325,
6146,-0.0982666,0.0413818,
6148,-0.0872803,0.0417358,
6150,0.0708008,0.0422058,
6152,0.00488281,0.0420532,
6154,0.0012207,0.0417664,
6156,-0.0335693,0.0419312,
6158,-0.0628662,0.0424255,
6160,-0.010376,0.0424866,
6162,-0.00488281,0.042395,
6164,0.0598145,0.0428772,
6166,-0.0860596,0.0430481,
6168,0.0366211,0.0432861,
6170,0.0323486,0.0434509,
6172,0.0299072,0.0427429,
6174,0.00305176,0.0424377,
6176,-0.0714111,0.0425781,
6178,0.012207,0.0423828,
6180,0.0170898,0.0417603,
6182,-0.0164795,0.0418396,
6184,-0.0274658,0.0411987,
6186,0.0402832,0.0412354,
6188,0.0476074,0.0410217,
6190,-0.117798,0.0415344,
6192,0.0811768,0.0419556,
6194,0.0213623,0.0421692,
6196,0.0476074,0.0426025,
6198,-0.0915527,0.0433411,
6200,0.00793457,0.0433105,
6202,-0.00183105,0.0423218,
6204,-0.0164795,0.0423523,
6206,-0.0140381,0.0415405,
6208,0.00549316,0.0409241,
6210,0.0628662,0.0404175,
6212,-0.043335,0.0401611,
6214,0.0537109,0.0395874,
6216,0.0482178,0.0389648,
6218,-0.0231934,0.0383118,
6220,-0.00732422,0.0383118,
6222,0.0262451,0.038446,
6224,-0.00427246,0.0384766,
6226,0.0158691,0.0379944,
6228,-0.0250244,0.037915,
6230,-0.0280762,0.0380127,
6232,0.020752,0.0380371,
6234,0.0256348,0.0382813,
6236,-0.00732422,0.0383484,
6238,0.0012207,0.0383362,
6240,0.022583,0.0385437,
6242,-0.00427246,0.0385742,
6244,-0.0170898,0.0386536,
6246,0.0592041,0.0386841,
6248,0.0140381,0.0386169,
6250,0.045166,0.0382324,
6252,0.0164795,0.0379639,
6254,-0.0665283,0.0385925,
6256,0.0427246,0.0388672,
6258,0.0769043,0.0394653,
6260,-0.10376,0.040387,
6262,0.00305176,0.0402893,
6264,-0.00366211,0.0403198,
6266,-0.0445557,0.0392639,
6268,0.0439453,0.0391968,
6270,0.032959,0.0384094,
6272,-0.106812,0.0387756,
6274,0.00488281,0.0385681,
6276,0.0177002,0.0385559,
6278,0.0012207,0.0380676,
6280,-0.00915527,0.0378845,
6282,-0.00427246,0.0376892,
6284,0.00427246,0.0374146,
6286,0.0335693,0.037384,
6288,0.212402,0.0394043,
6290,-0.0598145,0.0393738,
6292,-0.135498,0.0398315,
6294,0.108032,0.0401245,
6296,0.045166,0.0404053,
6298,-0.0408936,0.0400085,
6300,-0.0640869,0.0405457,
6302,0.000610352,0.0399902,
6304,-0.10376,0.0409363,
6306,-0.00793457,0.040979,
6308,-0.012207,0.0406311,
6310,0.0366211,0.0409424,
6312,0.00671387,0.0410034,
6314,-0.0109863,0.0411011,
6316,-0.0134277,0.0407715,
6318,-0.012207,0.0393005,
6320,-0.000610352,0.0373657,
6322,0.0366211,0.0376221,
6324,0.187378,0.038855,
6326,0,0.0387024,
6328,-0.132446,0.0399658,
6330,0.0860596,0.0405151,
6332,0.0274658,0.0407532,
6334,-0.020752,0.0407104,
6336,-0.0476074,0.0407471,
6338,-0.0524902,0.0406494,
6340,-0.032959,0.0408936,
6342,-0.0170898,0.0408997,
6344,0,0.0394348,
6346,0.0189209,0.0386414,
6348,0.0311279,0.0380798,
6350,-0.00915527,0.0374634,
6352,0.0305176,0.0377197,
6354,0.0128174,0.0378357,
6356,0.0012207,0.0375122,
6358,0.0231934,0.0371155,
6360,0.010376,0.0371155,
6362,-0.0256348,0.037323,
6364,0.020752,0.0369324,
6366,0.00854492,0.0361572,
6368,-0.00427246,0.0358337,
6370,0.00793457,0.0355896,
6372,0.043335,0.0357239,
6374,0.133667,0.03703,
6376,-0.0994873,0.0373108,
6378,-0.0305176,0.0374939,
6380,0.0579834,0.0379028,
6382,0.0506592,0.0382446,
6384,-0.0689697,0.0386597,
6386,-0.0390625,0.0386475,
6388,-0.0335693,0.0385071,
6390,-0.012207,0.0374512,
6392,0,0.0366394,
6394,0.0164795,0.0365906,
6396,0.0701904,0.0368164,
6398,-0.00549316,0.0359558,
6400,-0.0164795,0.0360413,
6402,0.0402832,0.0364258,
6404,0.0231934,0.0364929,
6406,0.012207,0.0364746,
6408,0.00549316,0.0364746,
6410,-0.00793457,0.0359253,
6412,0.00488281,0.0355408,
6414,0.0195313,0.035199,
6416,0.0585938,0.0353027,
6418,-0.0646973,0.0357178,
6420,0.0463867,0.0361084,
6422,0.0140381,0.0359863,
6424,-0.0140381,0.036084,
6426,-0.0134277,0.0360596,
6428,-0.0140381,0.0359497,
6430,0.00427246,0.0357117,
6432,0.0695801,0.0362,
6434,-0.0189209,0.0361328,
6436,-0.00671387,0.0361267,
6438,0.00366211,0.0361511,
6440,0.0714111,0.0366394,
6442,-0.0799561,0.0373962,
6444,0.00488281,0.0372742,
6446,0.00976563,0.0367798,
6448,0.0512695,0.0371521,
6450,0.000610352,0.0367065,
6452,-0.141602,0.0379578,
6454,0.0268555,0.037561,
6456,0.00915527,0.0372253,
6458,-0.00427246,0.036499,
6460,-0.0146484,0.0356079,
6462,-0.0396729,0.0359741,
6464,0.0274658,0.0362122,
6466,-0.0567627,0.0363342,
6468,-0.0250244,0.036145,
6470,0.0494385,0.0363098,
6472,0.0109863,0.0353516,
6474,-0.0268555,0.0355713,
6476,0.0134277,0.0355286,
6478,0.0231934,0.0357483,
6480,-0.0201416,0.0358582,
6482,-0.0170898,0.0359863,
6484,0.0445557,0.0363892,
6486,0.0146484,0.0362,
6488,0.0457764,0.0345337,
6490,0.0817871,0.0347534,
6492,-0.125122,0.0346497,
6494,0.0372314,0.0339417,
6496,0.022583,0.0337158,
6498,0.0445557,0.0337524,
6500,-0.0317383,0.033429,
6502,0.000610352,0.033429,
6504,-0.0488281,0.0328796,
6506,0.000610352,0.0328064,
6508,0.0177002,0.0328613,
6510,0.0274658,0.0327698,
6512,-0.0384521,0.0330872,
6514,-0.0134277,0.0331116,
6516,0.0756836,0.0337341,
6518,-0.0494385,0.0341064,
6520,-0.00732422,0.0341736,
6522,0.0982666,0.03479,
6524,-0.0256348,0.0331726,
6526,-0.00183105,0.0331909,
6528,0.0390625,0.0322571,
6530,0.0427246,0.0318237,
6532,-0.0213623,0.0317627,
6534,-0.045166,0.0320068,
6536,0.00976563,0.0316284,
6538,0.0213623,0.0313171,
6540,-0.0323486,0.031311,
6542,-0.0262451,0.0314026,
6544,-0.00976563,0.0315002,
6546,0.020752,0.0315186,
6548,-0.022583,0.0314331,
6550,-0.00610352,0.0314026,
6552,0.012207,0.0312195,
6554,-0.00488281,0.0311401,
6556,-0.00732422,0.0312012,
6558,0.00366211,0.0310059,
6560,-0.00244141,0.0309265,
6562,0.0146484,0.0308167,
6564,0.0262451,0.0308716,
6566,-0.00915527,0.0308777,
6568,0.0463867,0.0312988,
6570,-0.020752,0.031427,
6572,0.00305176,0.0310242,
6574,0.0231934,0.0299194,
6576,-0.00427246,0.0289673,
6578,-0.00732422,0.0287354,
6580,0.0445557,0.0286011,
6582,0.00427246,0.0281372,
6584,-0.0909424,0.0283569,
6586,0.0256348,0.0282227,
6588,0.00610352,0.027948,
6590,-0.00427246,0.0278687,
6592,-0.020752,0.0280762,
6594,-0.00549316,0.0279663,
6596,0.0750732,0.0280151,
6598,-0.00549316,0.0280151,
6600,-0.122681,0.0290771,
6602,0.0646973,0.0293213,
6604,0.0256348,0.0293457,
6606,0.00549316,0.0292786,
6608,-0.0390625,0.0296143,
6610,-0.0341797,0.0298767,
6612,-0.043335,0.0302612,
6614,0.00244141,0.0300903,
6616,-0.00244141,0.0295288,
6618,0.00488281,0.0289307,
6620,0.107422,0.029541,
6622,-0.0396729,0.0297974,
6624,-0.0512695,0.0301697,
6626,0.00183105,0.0300537,
6628,0.0213623,0.030127,
6630,-0.0170898,0.0302551,
6632,-0.032959,0.0298889,
6634,-0.0512695,0.0302124,
6636,-0.0292969,0.0304382,
6638,-0.0128174,0.0305298,
6640,-0.00976563,0.0299133,
6642,0.00671387,0.0291809,
6644,0.00976563,0.0292297,
6646,0.0152588,0.0292847,
6648,0.0128174,0.0289001,
6650,-0.00244141,0.0289185,
6652,0.0463867,0.0279663,
6654,-0.0500488,0.0281982,
6656,-0.00366211,0.0281433,
6658,0.0177002,0.0282776,
6660,-0.00732422,0.0282043,
6662,-0.00305176,0.0278381,
6664,-0.010376,0.0276672,
6666,-0.0128174,0.0272278,
6668,-0.000610352,0.0269836,
6670,0.00305176,0.0265198,
6672,0.00671387,0.0264771,
6674,-0.000610352,0.0262146,
6676,-0.0012207,0.0260925,
6678,0.0500488,0.0263611,
6680,0.137329,0.027533,
6682,-0.108643,0.0284485,
6684,-0.0152588,0.0281555,
6686,0.0494385,0.0285034,
6688,0.0408936,0.0284546,
6690,-0.0115967,0.0277527,
6692,0.0213623,0.0267151,
6694,-0.124512,0.0275879,
6696,0.0366211,0.0277283,
6698,-0.0256348,0.0275391,
6700,-0.0646973,0.0278687,
6702,-0.00610352,0.0279236,
6704,-0.0238037,0.0276733,
6706,-0.0341797,0.028009,
6708,-0.0274658,0.0281067,
6710,-0.022583,0.0280579,
6712,-0.00854492,0.0277588,
6714,-0.00549316,0.0276794,
6716,0.00244141,0.026947,
6718,0.00183105,0.0264709,
6720,0,0.0263977,
6722,0.00732422,0.0254883,
6724,0.00183105,0.0252502,
6726,0.0189209,0.0254211,
6728,0.116577,0.0261963,
6730,0.0476074,0.0262451,
6732,-0.0952148,0.0269836,
6734,0.00488281,0.0265808,
6736,0.0463867,0.026947,
6738,-0.0195313,0.0269287,
6740,0.022583,0.0268311,
6742,-0.0897217,0.0274658,
6744,-0.0970459,0.0283386,
6746,-0.0299072,0.0284302,
6748,-0.0158691,0.028363,
6750,0.0213623,0.0285156,
6752,-0.0469971,0.0288635,
6754,-0.0335693,0.0291504,
6756,-0.0274658,0.0293518,
6758,0.0012207,0.0293274,
6760,-0.012207,0.029425,
6762,-0.0146484,0.029425,
6764,-0.0134277,0.0292969,
6766,-0.00244141,0.0292297,
6768,0.000610352,0.028772,
6770,0.00305176,0.028595,
6772,0.0195313,0.0287598,
6774,0.0195313,0.0287231,
6776,0.0390625,0.029071,
6778,-0.00305176,0.0290283,
6780,-0.010376,0.0286865,
6782,0.032959,0.0289734,
6784,-0.00488281,0.0281128,
6786,-0.0201416,0.0280579,
6788,-0.000610352,0.0280029,
6790,-0.00732422,0.0280334,
6792,-0.00976563,0.0279236,
6794,0.00183105,0.027887,
6796,-0.0158691,0.0272949,
6798,-0.00793457,0.0273193,
6800,0.00915527,0.0261841,
6802,-0.00183105,0.0255554,
6804,-0.000610352,0.0253052,
6806,-0.00610352,0.0253113,
6808,-0.00732422,0.0249939,
6810,-0.00183105,0.0246704,
6812,-0.00244141,0.0242615,
6814,0.00183105,0.0242554,
6816,0.00610352,0.024292,
6818,0.00671387,0.0243103,
6820,0.0170898,0.023407,
6822,0.0341797,0.0233521,
6824,0.0445557,0.0232849,
6826,-0.0146484,0.0234131,
6828,0.022583,0.0234253,
6830,0.0488281,0.0237427,
6832,-0.0689697,0.0241028,
6834,0.0146484,0.0237366,
6836,0.0158691,0.0236023,
6838,0,0.0234741,
6840,-0.0714111,0.0240906,
6842,-0.0158691,0.0241821,
6844,0.114136,0.0252258,
6846,-0.123291,0.0263062,
6848,-0.0146484,0.0263245,
6850,0.0140381,0.0264404,
6852,-0.010376,0.0260803,
6854,-0.0366211,0.025946,
6856,-0.0360107,0.0262695,
6858,-0.0213623,0.0263062,
6860,-0.00427246,0.0262756,
6862,0.00671387,0.0263123,
6864,0.0146484,0.026355,
6866,0.0134277,0.0263611,
6868,0.0146484,0.0265015,
6870,0.0134277,0.0266052,
6872,0.00976563,0.0266357,
6874,0.00671387,0.0266968,
6876,-0.00427246,0.0267273,
6878,0.000610352,0.0262329,
6880,0.00427246,0.0249023,
6882,0.0872803,0.0246887,
6884,-0.0805664,0.0253418,
6886,0.0189209,0.0250366,
6888,0.0421143,0.0250488,
6890,0.0823975,0.0257568,
6892,-0.0897217,0.0264404,
6894,0.00671387,0.0252625,
6896,0.111694,0.0260132,
6898,-0.142212,0.027179,
6900,-0.000610352,0.0265381,
6902,-0.00915527,0.0265686,
6904,-0.0341797,0.0266724,
6906,-0.0256348,0.0265869,
6908,-0.00488281,0.0263611,
6910,-0.0238037,0.0263733,
6912,-0.020752,0.0264954,
6914,-0.0164795,0.0266052,
6916,0.0274658,0.0268555,
6918,0.0256348,0.0270935,
6920,0.00305176,0.027124,
6922,-0.00549316,0.0271057,
6924,-0.0262451,0.0273499,
6926,0.0164795,0.0273254,
6928,0.00915527,0.0262512,
6930,-0.00976563,0.0258728,
6932,0.00427246,0.0249634,
6934,-0.00976563,0.0250122,
6936,0.00915527,0.0246399,
6938,0.0274658,0.0247192,
6940,0.00854492,0.0245789,
6942,0.020752,0.0238892,
6944,-0.0158691,0.0230774,
6946,0.0219727,0.022998,
6948,0.00915527,0.0229309,
6950,-0.00671387,0.0227844,
6952,-0.00427246,0.0223572,
6954,-0.00488281,0.0220703,
6956,-0.00305176,0.0218262,
6958,0.0134277,0.0219482,
6960,0.0109863,0.021936,
6962,-0.00671387,0.0218567,
6964,0.0152588,0.021875,
6966,0.0213623,0.0220642,
6968,0.0274658,0.0223328,
6970,0.0891113,0.0231934,
6972,-0.0701904,0.0237,
6974,-0.0311279,0.0238159,
6976,0.0140381,0.0235657,
6978,0.0250244,0.0237854,
6980,-0.0250244,0.0239319,
6982,-0.0305176,0.0239075,
6984,-0.0305176,0.0241638,
6986,-0.0170898,0.0241333,
6988,-0.012207,0.0242493,
6990,0.0238037,0.0244141,
6992,0.00183105,0.0243347,
6994,0.022583,0.0245422,
6996,0.0274658,0.0246582,
6998,-0.0189209,0.0247681,
7000,0.0213623,0.0248901,
7002,0.0012207,0.024884,
7004,0.0140381,0.0250183,
7006,0.0219727,0.025177,
7008,-0.0390625,0.0254944,
7010,0.00549316,0.025531,
7012,-0.00427246,0.0255493,
7014,0.0128174,0.0256592,
7016,0.0280762,0.0258789,
7018,-0.0158691,0.0259705,
7020,-0.0152588,0.0259521,
7022,0.0195313,0.0258057,
7024,0.0604248,0.0259644,
7026,0.0897217,0.0267151,
7028,-0.0805664,0.0272949,
7030,-0.065918,0.0274658,
7032,0.0610352,0.0273865,
7034,0.00732422,0.0273132,
7036,-0.03479,0.0275024,
7038,-0.0378418,0.0278809,
7040,-0.0189209,0.027356,
7042,-0.0170898,0.0273682,
7044,0.106812,0.0272949,
7046,-0.0939941,0.027002,
7048,-0.0201416,0.0270569,
7050,0.0561523,0.027478,
7052,0.0134277,0.0275085,
7054,-0.0213623,0.027356,
7056,-0.0268555,0.0272644,
7058,-0.0195313,0.0272461,
7060,-0.0115967,0.0273193,
7062,0.0305176,0.0275574,
7064,0.0421143,0.027832,
7066,-0.0469971,0.0281677,
7068,0.0262451,0.0282837,
7070,0.043335,0.0285828,
7072,0.00305176,0.0285156,
7074,-0.032959,0.0287781,
7076,0.010376,0.0288391,
7078,0.0201416,0.0290344,
7080,-0.0012207,0.0290039,
7082,-0.0158691,0.0282898,
7084,0.0445557,0.0279297,
7086,0.0415039,0.0281555,
7088,-0.0628662,0.028363,
7090,0.0170898,0.02771,
7092,0.0244141,0.0270569,
7094,-0.00549316,0.0270447,
7096,-0.0201416,0.0261292,
7098,-0.0115967,0.024823,
7100,0,0.0248169,
7102,0.0164795,0.0248901,
7104,0.020752,0.0247559,
7106,-0.0140381,0.0246399,
7108,0.010376,0.0246948,
7110,0.0708008,0.0251648,
7112,0.0488281,0.0254456,
7114,-0.0958252,0.026239,
7116,-0.0134277,0.0260986,
7118,0.0268555,0.0261108,
7120,-0.00732422,0.0261536,
7122,-0.0195313,0.0262939,
7124,-0.0714111,0.0267456,
7126,-0.0250244,0.0268311,
7128,-0.00854492,0.026825,
7130,-0.00793457,0.0268066,
7132,-0.00610352,0.026825,
7134,-0.00488281,0.0267761,
7136,-0.0109863,0.0267944,
7138,0.012207,0.0266418,
7140,-0.012207,0.0266785,
7142,0.000610352,0.0264771,
7144,-0.00793457,0.0263977,
7146,0.0195313,0.0263733,
7148,0.00732422,0.026355,
7150,-0.0213623,0.0265015,
7152,-0.00671387,0.0265259,
7154,0.00427246,0.0265198,
7156,-0.00793457,0.0265686,
7158,-0.0201416,0.0266357,
7160,-0.0164795,0.0266907,
7162,-0.0146484,0.02677,
7164,-0.00610352,0.0266785,
7166,-0.00183105,0.0264832,
7168,-0.0268555,0.0264771,
7170,0.0134277,0.0257202,
7172,0.0335693,0.025354,
7174,-0.0567627,0.0256104,
7176,0.00549316,0.0255249,
7178,0.00427246,0.0253174,
7180,-0.0213623,0.0252808,
7182,-0.00305176,0.0250061,
7184,0.0585938,0.0252869,
7186,-0.0543213,0.0256592,
7188,-0.0524902,0.026062,
7190,0.0360107,0.0261841,
7192,0.00793457,0.0262451,
7194,-0.0115967,0.0261353,
7196,-0.0262451,0.026123,
7198,-0.00732422,0.0260071,
7200,0.00854492,0.0258789,
7202,-0.0366211,0.0262329,
7204,0.0286865,0.0263794,
7206,-0.0183105,0.0263428,
7208,-0.00305176,0.0259827,
7210,0.0244141,0.0261719,
7212,-0.00915527,0.0262207,
7214,-0.0512695,0.0266052,
7216,0.00488281,0.0263733,
7218,-0.00244141,0.026239,
7220,0.0213623,0.0263,
7222,-0.0280762,0.0263855,
7224,-0.0292969,0.0260742,
7226,-0.0183105,0.0253601,
7228,0.0012207,0.0245667,
7230,-0.0109863,0.0240173,
7232,-0.0170898,0.0235779,
7234,-0.020752,0.0237122,
7236,-0.0158691,0.0235229,
7238,-0.00183105,0.0231628,
7240,-0.00488281,0.0230225,
7242,0.000610352,0.0228577,
7244,0.00305176,0.0218201,
7246,-0.000610352,0.0208862,
7248,0.0146484,0.0208313,
7250,0.0421143,0.0206909,
7252,-0.00183105,0.020575,
7254,-0.0360107,0.0207214,
7256,0.0317383,0.0207703,
7258,0.0201416,0.0207764,
7260,0.00610352,0.0207214,
7262,-0.00854492,0.0205017,
7264,0.0585938,0.0206665,
7266,-0.0170898,0.0203674,
7268,-0.0317383,0.0204224,
7270,-0.0201416,0.0201904,
7272,0.0164795,0.0203247,
7274,-0.045166,0.0204468,
7276,-0.0396729,0.0207397,
7278,-0.0286865,0.0208252,
7280,-0.0378418,0.0211914,
7282,-0.0268555,0.0213013,
7284,-0.0195313,0.021051,
7286,-0.0109863,0.0207458,
7288,0.00183105,0.0201355,
7290,0.000610352,0.0199707,
7292,-0.0012207,0.0197388,
7294,0.00366211,0.0197205,
7296,0,0.019519,
7298,-0.00427246,0.0194458,
7300,-0.00244141,0.0194702,
7302,0.00366211,0.019342,
7304,-0.00488281,0.0191833,
7306,-0.00671387,0.0191101,
7308,-0.000610352,0.0190125,
7310,0.00610352,0.0183655,
7312,0.0427246,0.0183044,
7314,-0.0201416,0.0175476,
7316,0.0189209,0.0176025,
7318,-0.0201416,0.0175354,
7320,0.0439453,0.0179016,
7322,0.0604248,0.0183105,
7324,-0.0488281,0.0180847,
7326,-0.0402832,0.0182373,
7328,-0.0158691,0.0183105,
7330,0.0170898,0.0184021,
7332,-0.0592041,0.0189331,
7334,-0.0140381,0.0190247,
7336,-0.0695801,0.0196106,
7338,-0.0158691,0.0196472,
7340,-0.0012207,0.0195374,
7342,-0.0323486,0.0198547,
7344,0.00305176,0.0198059,
7346,-0.00305176,0.0196411,
7348,0.00183105,0.0195862,
7350,-0.00488281,0.0194214,
7352,-0.00427246,0.019397,
7354,0.00366211,0.0193909,
7356,-0.00366211,0.0193481,
7358,0.00793457,0.0192261,
7360,0.000610352,0.0190674,
7362,-0.0012207,0.0189331,
7364,0.0140381,0.0190125,
7366,0.043335,0.0194275,
7368,0.0518799,0.0196777,
7370,-0.0579834,0.0201233,
7372,0.00976563,0.0198853,
7374,-0.000610352,0.0193237,
7376,0.00610352,0.0193298,
7378,-0.010376,0.0193909,
7380,-0.00915527,0.0192688,
7382,0.0146484,0.0193848,
7384,-0.0115967,0.0189148,
7386,-0.0610352,0.0189819,
7388,0.020752,0.0186646,
7390,0.0238037,0.0185425,
7392,-0.0219727,0.0186829,
7394,-0.0164795,0.0187317,
7396,-0.0177002,0.0186462,
7398,-0.0213623,0.0187866,
7400,-0.0140381,0.0188416,
7402,0.012207,0.0185974,
7404,-0.00976563,0.0184082,
7406,-0.00427246,0.0182678,
7408,0.0256348,0.0184937,
7410,0.0012207,0.0182617,
7412,0.0634766,0.0188049,
7414,0.0445557,0.0187378,
7416,-0.135498,0.0200439,
7418,0.055542,0.020575,
7420,0.0158691,0.02052,
7422,0.00610352,0.0203003,
7424,0.00671387,0.0200745,
7426,-0.0970459,0.0208618,
7428,-0.045166,0.0213013,
7430,0.010376,0.0212952,
7432,-0.00427246,0.021167,
7434,-0.0189209,0.0211487,
7436,-0.0244141,0.0212341,
7438,-0.0213623,0.0214294,
7440,-0.0158691,0.0215393,
7442,-0.00244141,0.0215576,
7444,0.0177002,0.0217041,
7446,0.0274658,0.0219727,
7448,-0.00854492,0.0219116,
7450,0.00244141,0.0215149,
7452,0.0292969,0.0217896,
7454,-0.00793457,0.0215088,
7456,-0.0134277,0.0213257,
7458,0.0134277,0.0212585,
7460,0.0213623,0.0214111,
7462,-0.0231934,0.0215576,
7464,0.0201416,0.0211731,
7466,-0.0244141,0.0212463,
7468,0.000610352,0.0209351,
7470,0.0115967,0.0208496,
7472,-0.00366211,0.0207214,
7474,-0.0109863,0.0203796,
7476,-0.0115967,0.0200989,
7478,-0.00793457,0.0198914,
7480,-0.0012207,0.0195251,
7482,0.00549316,0.0193115,
7484,0.00610352,0.0191772,
7486,0.00305176,0.0190979,
7488,0.0109863,0.0191895,
7490,0.00793457,0.0192627,
7492,0.0109863,0.0193604,
7494,0.0311279,0.019635,
7496,0.0311279,0.0199463,
7498,0.012207,0.0200256,
7500,0.0604248,0.0206055,
7502,-0.0311279,0.0208801,
7504,0.0164795,0.0209961,
7506,-0.0238037,0.021167,
7508,-0.022583,0.0213867,
7510,-0.00915527,0.0214172,
7512,-0.0494385,0.0214844,
7514,-0.0579834,0.0218628,
7516,-0.0292969,0.0219666,
7518,-0.00427246,0.0218079,
7520,-0.00305176,0.0213989,
7522,-0.0134277,0.020929,
7524,0.00610352,0.0205017,
7526,0.0500488,0.0205994,
7528,-0.00427246,0.0204834,
7530,0.000610352,0.0203186,
7532,0.0189209,0.0199158,
7534,0.0701904,0.0204773,
7536,-0.0231934,0.0200134,
7538,-0.0518799,0.0203735,
7540,0.00976563,0.020459,
7542,0.0146484,0.020282,
7544,-0.000610352,0.0202576,
7546,-0.0720215,0.0209473,
7548,-0.0189209,0.0211182,
7550,-0.022583,0.0212952,
7552,-0.00671387,0.0213196,
7554,0.00366211,0.0213196,
7556,-0.012207,0.021405,
7558,-0.00305176,0.0213562,
7560,-0.0012207,0.0213623,
7562,0.00366211,0.0213867,
7564,0.0787354,0.0220337,
7566,0.0146484,0.0217468,
7568,0.0012207,0.0212402,
7570,-0.0201416,0.0208618,
7572,0.000610352,0.0207703,
7574,0.0378418,0.0211426,
7576,-0.0231934,0.0213135,
7578,-0.0610352,0.0218201,
7580,-0.0262451,0.021991,
7582,-0.0140381,0.0219849,
7584,0.0939941,0.0228088,
7586,-0.120239,0.0234009,
7588,-0.0317383,0.0235107,
7590,0.0366211,0.0236389,
7592,0.0274658,0.0236938,
7594,0.0128174,0.0236572,
7596,-0.0695801,0.024176,
7598,-0.0274658,0.0242371,
7600,0.00183105,0.024115,
7602,0.0244141,0.0242371,
7604,0.00427246,0.0241821,
7606,-0.0280762,0.0244202,
7608,0.0726318,0.0248901,
7610,0.032959,0.0252075,
7612,0.0976563,0.0255493,
7614,-0.119629,0.0263,
7616,-0.0244141,0.0251892,
7618,0.043335,0.0250671,
7620,0.00610352,0.0249695,
7622,-0.0860596,0.025769,
7624,-0.0140381,0.0258423,
7626,-0.0134277,0.0250061,
7628,-0.0750732,0.0253052,
7630,0.00488281,0.0252502,
7632,0.00427246,0.0252502,
7634,-0.0109863,0.0251709,
7636,-0.0109863,0.0250366,
7638,-0.010376,0.0249268,
7640,-0.0152588,0.0249207,
7642,0.010376,0.025,
7644,0.0415039,0.025238,
7646,-0.0708008,0.0256714,
7648,0.0292969,0.0258789,
7650,0.0512695,0.0263672,
7652,-0.0164795,0.026239,
7654,-0.0292969,0.0264526,
7656,0.00244141,0.0263428,
7658,-0.00244141,0.0262329,
7660,0.022583,0.0262451,
7662,0.0360107,0.0263733,
7664,-0.0506592,0.0266785,
7666,-0.010376,0.0265381,
7668,0.0500488,0.0270325,
7670,-0.00244141,0.0269409,
7672,0.0238037,0.0271423,
7674,-0.0256348,0.0272888,
7676,0.10498,0.0282227,
7678,-0.109253,0.0292358,
7680,-0.03479,0.0295715,
7682,0.0299072,0.0298157,
7684,0.0183105,0.0299377,
7686,0.0750732,0.030658,
7688,-0.090332,0.0314514,
7690,-0.0585938,0.031958,
7692,0.100708,0.0328552,
7694,-0.0372314,0.0329163,
7696,-0.0177002,0.032782,
7698,0.0848389,0.0335083,
7700,-0.120239,0.0341064,
7702,-0.0500488,0.0342957,
7704,0.0402832,0.0345337,
7706,-0.0280762,0.0345764,
7708,-0.010376,0.0344543,
7710,-0.0183105,0.0345459,
7712,-0.0177002,0.0342285,
7714,-0.000610352,0.0336548,
7716,0.00793457,0.0334412,
7718,0.00732422,0.0334717,
7720,0.0537109,0.0339783,
7722,0.0262451,0.0341064,
7724,-0.032959,0.034375,
7726,0.0292969,0.0341675,
7728,0.0427246,0.034552,
7730,0.0201416,0.0347473,
7732,-0.0524902,0.035083,
7734,-0.0262451,0.0346436,
7736,0.00427246,0.0344543,
7738,0.0189209,0.0341248,
7740,-0.043335,0.0344604,
7742,0.0372314,0.0346863,
7744,0.112915,0.0358093,
7746,-0.0927734,0.0360168,
7748,-0.0622559,0.0364502,
7750,0.0872803,0.0370972,
7752,-0.0012207,0.0370422,
7754,-0.0323486,0.0373291,
7756,-0.0549316,0.0377563,
7758,-0.0354004,0.0380798,
7760,-0.0195313,0.0382629,
7762,0.00671387,0.0382935,
7764,-0.045166,0.0379578,
7766,0.0177002,0.0379883,
7768,0.0262451,0.0382385,
7770,0.0292969,0.0383301,
7772,-0.0280762,0.0386047,
7774,-0.0201416,0.0384277,
7776,-0.0128174,0.038324,
7778,0.0128174,0.0378418,
7780,0.0231934,0.0378113,
7782,0.00244141,0.0376953,
7784,-0.0579834,0.0373352,
7786,-0.0268555,0.0364014,
7788,0.00427246,0.0361267,
7790,0.00366211,0.0357971,
7792,-0.0170898,0.0356934,
7794,0.0775146,0.0363403,
7796,-0.0231934,0.0358765,
7798,-0.133057,0.0369324,
7800,0.0561523,0.0374756,
7802,0.0579834,0.0378113,
7804,-0.0506592,0.0382751,
7806,-0.0354004,0.0383484,
7808,-0.0360107,0.0379822,
7810,-0.0158691,0.0378113,
7812,-0.00854492,0.0369202,
7814,0.00915527,0.0358154,
7816,-0.0537109,0.0361084,
7818,0.00488281,0.0357239,
7820,0.00793457,0.0357422,
7822,0.020752,0.0350891,
7824,-0.0305176,0.0352539,
7826,0.0445557,0.0355652,
7828,-0.0463867,0.0352783,
7830,0.0244141,0.0354736,
7832,0.119629,0.0366272,
7834,-0.0811768,0.0373291,
7836,-0.0524902,0.0377441,
7838,0.0341797,0.0379822,
7840,0.0567627,0.0383972,
7842,-0.0817871,0.0391113,
7844,-0.0335693,0.039032,
7846,-0.00854492,0.0384094,
7848,0.0170898,0.0382874,
7850,-0.0305176,0.0380798,
7852,0.0665283,0.0385803,
7854,-0.107422,0.0393616,
7856,0.0445557,0.0397827,
7858,0.0354004,0.0401123,
7860,-0.00793457,0.0399658,
7862,0.0250244,0.039856,
7864,-0.067749,0.0400269,
7866,0.00549316,0.039978,
7868,0.0158691,0.0396362,
7870,-0.0341797,0.0399536,
7872,0.00854492,0.039801,
7874,0.0189209,0.0397339,
7876,0.0842285,0.0395264,
7878,-0.120239,0.0396362,
7880,0.0268555,0.0395569,
7882,0.00854492,0.0393433,
7884,-0.0231934,0.0393921,
7886,-0.0164795,0.0388062,
7888,-0.0256348,0.0381592,
7890,0.00366211,0.0376099,
7892,-0.0854492,0.0374573,
7894,-0.0146484,0.0372314,
7896,0.0158691,0.0372131,
7898,-0.0115967,0.0364807,
7900,-0.0195313,0.0354736,
7902,-0.00976563,0.0350708,
7904,0.00366211,0.0347046,
7906,-0.0384521,0.0348083,
7908,-0.00732422,0.0347778,
7910,0.0274658,0.0348694,
7912,0.0799561,0.0354919,
7914,-0.0695801,0.0361816,
7916,-0.0604248,0.0367065,
7918,0.0335693,0.036969,
7920,0.0714111,0.037146,
7922,-0.0665283,0.0375488,
7924,-0.0891113,0.0381104,
7926,-0.00793457,0.0378967,
7928,-0.00305176,0.0375,
7930,-0.0469971,0.0377686,
7932,-0.010376,0.0373474,
7934,-0.0311279,0.0373962,
7936,-0.00244141,0.0373779,
7938,0.0622559,0.0378113,
7940,-0.032959,0.0377075,
7942,-0.0592041,0.0379272,
7944,0.0292969,0.0370911,
7946,-0.0299072,0.0364624,
7948,-0.0231934,0.0360718,
7950,-0.0360107,0.0355591,
7952,-0.0286865,0.0358337,
7954,-0.0189209,0.0356995,
7956,-0.00793457,0.0352295,
7958,0.00488281,0.0349243,
7960,-0.00793457,0.0348083,
7962,-0.0128174,0.0348694,
7964,0.00610352,0.0344788,
7966,0.00549316,0.0343567,
7968,0.0274658,0.0343689,
7970,0.101318,0.0350891,
7972,0.0244141,0.0350525,
7974,-0.153198,0.0363831,
7976,0.0335693,0.0365906,
7978,0.0823975,0.0372864,
7980,-0.0408936,0.0374634,
7982,-0.020752,0.0376465,
7984,-0.0256348,0.037323,
7986,-0.0714111,0.0377686,
7988,-0.0274658,0.0380005,
7990,0.055542,0.0385193,
7992,0.0335693,0.0386841,
7994,-0.107422,0.0389832,
7996,0.0421143,0.0391724,
7998,0.00976563,0.0379395,
8000,-0.127563,0.0386536,
8002,-0.0183105,0.0382568,
8004,-0.0177002,0.0379272,
8006,-0.012207,0.0376953,
8008,-0.00305176,0.0373657,
8010,-0.0866699,0.0380737,
8012,0.0256348,0.0382446,
8014,-0.0665283,0.0388184,
8016,0.022583,0.0385071,
8018,-0.020752,0.0386658,
8020,-0.0250244,0.0388367,
8022,0.00183105,0.0386475,
8024,0.10437,0.039386,
8026,-0.123291,0.0401733,
8028,-0.0469971,0.0401794,
8030,0.0585938,0.0405212,
8032,0.0231934,0.0395569,
8034,-0.0384521,0.0391296,
8036,-0.0268555,0.0388733,
8038,0.067749,0.039209,
8040,0.143433,0.0400757,
8042,-0.27832,0.042041,
8044,0.0518799,0.0422241,
8046,0.0732422,0.0428711,
8048,-0.00671387,0.0427673,
8050,-0.057373,0.0430359,
8052,-0.0646973,0.0430176,
8054,-0.0305176,0.0422485,
8056,-0.0439453,0.0422424,
8058,-0.00183105,0.0419067,
8060,0.00976563,0.041925,
8062,0.0714111,0.0423889,
8064,-0.0219727,0.0419312,
8066,-0.067749,0.0425537,
8068,0.0482178,0.0428772,
8070,0.0195313,0.0427307,
8072,0.00793457,0.0427246,
8074,0.0256348,0.0427917,
8076,-0.0976563,0.042926,
8078,-0.00793457,0.041803,
8080,0.0201416,0.0417358,
8082,-0.000610352,0.0416565,
8084,0.00549316,0.0414795,
8086,-0.0360107,0.0416748,
8088,-0.0280762,0.0416992,
8090,0.0360107,0.0420227,
8092,0.00427246,0.0412109,
8094,0.0402832,0.0414673,
8096,-0.078125,0.0420898,
8098,0.0305176,0.0422791,
8100,0.00976563,0.0421814,
8102,-0.0201416,0.0422852,
8104,0.0402832,0.0426514,
8106,-0.0262451,0.0425293,
8108,-0.0695801,0.0431519,
8110,0.0231934,0.0431091,
8112,-0.0164795,0.0424744,
8114,-0.0146484,0.041925,
8116,-0.0183105,0.0415039,
8118,-0.0335693,0.0415039,
8120,-0.00854492,0.0408752,
8122,-0.0622559,0.0408325,
8124,-0.00976563,0.0400391,
8126,0,0.0399597,
8128,0.00488281,0.039978,
8130,0.0109863,0.0396179,
8132,-0.000610352,0.0395203,
8134,-0.020752,0.0394165,
8136,-0.012207,0.0395142,
8138,-0.00610352,0.0389526,
8140,-0.00671387,0.0386902,
8142,-0.0231934,0.0383301,
8144,-0.0189209,0.0382263,
8146,-0.0354004,0.0382813,
8148,0.00671387,0.0381165,
8150,0.0634766,0.0383911,
8152,-0.13855,0.0394897,
8154,0.032959,0.0396301,
8156,0,0.0395508,
8158,-0.00610352,0.039563,
8160,-0.00244141,0.0395081,
8162,-0.022583,0.0396057,
8164,-0.0158691,0.0397034,
8166,-0.0372314,0.0400208,
8168,0.010376,0.0398499,
8170,-0.0274658,0.0391113,
8172,-0.020752,0.0390747,
8174,-0.0109863,0.0376526,
8176,-0.0231934,0.0375488,
8178,-0.0195313,0.0369202,
8180,-0.00732422,0.0365845,
8182,-0.0494385,0.0368713,
8184,-0.00244141,0.0366394,
8186,-0.00305176,0.0359558,
8188,-0.0146484,0.0358276,
8190,-0.00732422,0.0353455,
8192,0.0384521,0.0353943,
8194,-0.0531006,0.0348511,
8196,0.0146484,0.0345764,
8198,-0.00854492,0.0345642,
8200,-0.0366211,0.0336548,
8202,0.00549316,0.0335266,
8204,-0.0115967,0.0334656,
8206,-0.0183105,0.0335266,
8208,-0.020752,0.0337036,
8210,0.0537109,0.033374,
8212,-0.0292969,0.0334106,
8214,0.0317383,0.0330627,
8216,-0.0817871,0.0336548,
8218,0.0335693,0.033783,
8220,-0.00671387,0.0335999,
8222,-0.0231934,0.0338135,
8224,-0.0366211,0.033136,
8226,0.00915527,0.0319946,
8228,-0.0817871,0.0323425,
8230,-0.00305176,0.0317871,
8232,0.0286865,0.031842,
8234,0.045166,0.0319092,
8236,-0.0323486,0.0319641,
8238,-0.00915527,0.0313782,
8240,0.012207,0.0300659,
8242,0.0427246,0.02771,
8244,-0.0262451,0.0274536,
8246,-0.0158691,0.0268799,
8248,-0.0109863,0.0269226,
8250,0.00183105,0.0263672,
8252,-0.0012207,0.0257324,
8254,0.0592041,0.0260193,
8256,0.145264,0.0270325,
8258,-0.17395,0.0287537,
8260,0.0384521,0.0290405,
8262,-0.0231934,0.0285583,
8264,0.0354004,0.0286926,
8266,-0.0201416,0.0282166,
8268,-0.0231934,0.0279663,
8270,-0.0891113,0.0286621,
8272,-0.0415039,0.0289978,
8274,0,0.0287415,
8276,-0.00610352,0.0278259,
8278,0.00732422,0.0278198,
8280,0.00244141,0.0276428,
8282,0.0152588,0.0277893,
8284,0.0189209,0.0279236,
8286,0.0183105,0.0277466,
8288,0.00915527,0.0275574,
8290,-0.0012207,0.0272095,
8292,0.0354004,0.0275208,
8294,0.0262451,0.0273804,
8296,-0.0305176,0.0269043,
8298,0.012207,0.0267212,
8300,0.0189209,0.0268127,
8302,-0.012207,0.0267334,
8304,0.0482178,0.0268127,
8306,0.0878906,0.0274292,
8308,-0.0286865,0.0270203,
8310,-0.0744629,0.027533,
8312,0.0646973,0.0280151,
8314,0.0146484,0.0280151,
8316,-0.03479,0.0281799,
8318,-0.0354004,0.0281982,
8320,-0.0311279,0.0284241,
8322,-0.0146484,0.027948,
8324,0.0115967,0.0279663,
8326,0.0891113,0.0288574,
8328,-0.112305,0.0299316,
8330,0.0262451,0.0300842,
8332,0.0494385,0.0305725,
8334,-0.00366211,0.0304016,
8336,-0.00366211,0.0303162,
8338,0.0524902,0.03078,
8340,-0.0921631,0.0316345,
8342,-0.00366211,0.0314392,
8344,0.0457764,0.0317078,
8346,0.0512695,0.0318665,
8348,-0.0646973,0.0324463,
8350,-0.0274658,0.0320862,
8352,0.022583,0.0309265,
8354,-0.00244141,0.0306213,
8356,0,0.0306213,
8358,-0.0500488,0.0310608,
8360,-0.00183105,0.0310547,
8362,0.0109863,0.0309387,
8364,0.0500488,0.0312805,
8366,-0.043335,0.0313416,
8368,-0.0317383,0.0315552,
8370,0.0286865,0.0315674,
8372,-0.00305176,0.0313904,
8374,-0.00915527,0.0313721,
8376,-0.012207,0.0312622,
8378,0.043335,0.0315002,
8380,-0.00427246,0.0314697,
8382,-0.0280762,0.0312561,
8384,-0.0427246,0.0316589,
8386,0.0177002,0.0318054,
8388,0.0109863,0.0317688,
8390,-0.0408936,0.0321045,
8392,-0.0372314,0.0320923,
8394,-0.0280762,0.031842,
8396,-0.0256348,0.0319519,
8398,-0.0115967,0.0319824,
8400,-0.00183105,0.0316345,
8402,-0.00793457,0.0316589,
8404,0.00366211,0.0315796,
8406,0.00366211,0.0314331,
8408,0.0140381,0.031366,
8410,0.010376,0.0309326,
8412,-0.0183105,0.0308228,
8414,0.0518799,0.0310242,
8416,0.067749,0.0308838,
8418,-0.0738525,0.0312866,
8420,0.00915527,0.031311,
8422,-0.0323486,0.0314026,
8424,-0.0012207,0.0310486,
8426,-0.032959,0.0312866,
8428,-0.03479,0.0308167,
8430,-0.043335,0.0312195,
8432,-0.045166,0.0313843,
8434,-0.0158691,0.0310913,
8436,-0.00793457,0.0308472,
8438,0.150757,0.0322632,
8440,-0.0921631,0.0330627,
8442,0.00427246,0.0326782,
8444,0.0213623,0.0326294,
8446,-0.0311279,0.032782,
8448,-0.0146484,0.0328186,
8450,-0.0317383,0.0331177,
8452,-0.055542,0.0336609,
8454,-0.0421143,0.03349,
8456,-0.0378418,0.0324158,
8458,-0.00732422,0.0307495,
8460,-0.010376,0.0304688,
8462,-0.0152588,0.0303894,
8464,0.00793457,0.0301147,
8466,0.0292969,0.0302063,
8468,0.0378418,0.0303528,
8470,-0.0604248,0.0300659,
8472,-0.00671387,0.029718,
8474,0.012207,0.0298401,
8476,-0.00671387,0.0298462,
8478,0.00610352,0.029834,
8480,-0.00488281,0.0298584,
8482,-0.0170898,0.0298767,
8484,-0.022583,0.0299133,
8486,-0.0305176,0.0300354,
8488,0.00793457,0.0300232,
8490,-0.00549316,0.0300659,
8492,-0.0311279,0.0300232,
8494,-0.0238037,0.0299988,
8496,-0.0238037,0.0299316,
8498,-0.012207,0.0299316,
8500,-0.012207,0.0298645,
8502,-0.00976563,0.0298401,
8504,-0.0012207,0.0293701,
8506,-0.000610352,0.0284973,
8508,-0.00854492,0.0282959,
8510,0.00305176,0.0275818,
8512,0.00671387,0.027002,
8514,0.00976563,0.0269531,
8516,-0.010376,0.026709,
8518,0.0354004,0.026709,
8520,-0.00488281,0.0264465,
8522,-0.0396729,0.0266968,
8524,0.0823975,0.0274048,
8526,-0.117188,0.0276855,
8528,-0.00183105,0.0265808,
8530,-0.0170898,0.0264893,
8532,-0.0152588,0.0261475,
8534,0.00610352,0.0261719,
8536,-0.055542,0.0266907,
8538,-0.0244141,0.0264099,
8540,0.0115967,0.0256042,
8542,-0.0262451,0.0258301,
8544,0.0140381,0.0255127,
8546,-0.0305176,0.0253052,
8548,-0.0366211,0.0250244,
8550,-0.0219727,0.0249695,
8552,-0.0268555,0.0250122,
8554,-0.0140381,0.0251282,
8556,-0.0128174,0.0252563,
8558,-0.0146484,0.0249023,
8560,-0.00244141,0.0249084,
8562,0.00305176,0.0248291,
8564,-0.020752,0.0245361,
8566,0,0.0241028,
8568,-0.0012207,0.0237976,
8570,0.0915527,0.0244263,
8572,0.0854492,0.0252502,
8574,-0.222778,0.0273865,
8576,0.057373,0.0278381,
8578,0.0463867,0.0278687,
8580,-0.0128174,0.0279541,
8582,-0.0592041,0.0282654,
8584,-0.0134277,0.0279724,
8586,0.0177002,0.0279724,
8588,0.0384521,0.0282471,
8590,-0.12207,0.0290588,
8592,0.010376,0.0287903,
8594,0.0360107,0.0288696,
8596,-0.0134277,0.0287476,
8598,-0.0378418,0.02901,
8600,-0.0457764,0.0294495,
8602,-0.0421143,0.0297913,
8604,-0.0189209,0.0299438,
8606,-0.0244141,0.0301514,
8608,-0.00610352,0.030072,
8610,0.00427246,0.030011,
8612,0.032959,0.0301575,
8614,-0.0335693,0.0299744,
8616,-0.0286865,0.0295837,
8618,0.0109863,0.0289551,
8620,0.00244141,0.0288879,
8622,-0.0170898,0.0287354,
8624,0.0140381,0.0288635,
8626,-0.0585938,0.0291199,
8628,0.0323486,0.0290955,
8630,-0.0439453,0.0291016,
8632,0.0439453,0.0290894,
8634,0.0128174,0.0290588,
8636,-0.0531006,0.0295105,
8638,0.00366211,0.0280396,
8640,-0.010376,0.0272217,
8642,-0.0238037,0.027417,
8644,-0.0152588,0.027356,
8646,-0.0219727,0.0272644,
8648,-0.0012207,0.0271301,
8650,-0.0164795,0.0269775,
8652,-0.00854492,0.0265076,
8654,0.0158691,0.0262451,
8656,0.00427246,0.0259094,
8658,0.00305176,0.0258667,
8660,0.0408936,0.0261719,
8662,-0.0463867,0.0264832,
8664,0.0292969,0.0266968,
8666,-0.0390625,0.0267944,
8668,-0.00976563,0.0265137,
8670,0.0427246,0.0263367,
8672,0.0640869,0.0269104,
8674,-0.146484,0.0282532,
8676,-0.0244141,0.0284302,
8678,0.0250244,0.0286194,
8680,-0.0109863,0.0286804,
8682,-0.0305176,0.0288147,
8684,-0.0292969,0.0288818,
8686,-0.0183105,0.0287598,
8688,0.0195313,0.0288757,
8690,-0.067749,0.0294983,
8692,0.0109863,0.0292969,
8694,0.0189209,0.029248,
8696,0.00610352,0.029071,
8698,-0.0201416,0.0291504,
8700,-0.00976563,0.029126,
8702,0.00915527,0.0291199,
8704,0.0152588,0.0292603,
8706,0.0714111,0.0299683,
8708,-0.0616455,0.0304993,
8710,-0.0372314,0.0308411,
8712,0.0500488,0.0312744,
8714,0.122681,0.0324036,
8716,-0.175781,0.0340576,
8718,-0.0201416,0.033905,
8720,0.0518799,0.034375,
8722,-0.0427246,0.0344055,
8724,-0.0714111,0.0342957,
8726,-0.0201416,0.0333252,
8728,-0.0213623,0.0335205,
8730,-0.0305176,0.0336548,
