AnaPao-A-Musc-ABC-L01
Gráfico creado el:2026-06-05 13:25:38.298
Registro en:2026-06-05 13:27:34.816
2 mseg/muestras
2 canales
EMG
mV
EMG Integrado
mV-sec
milliSec,CH1,CH40,
,558098 samples,558098 samples,
0,0.0012207,1.2207E-05,
2,0.00366211,4.88281E-05,
4,0.00671387,0.000115967,
6,-0.00610352,0.000177002,
8,0.00244141,0.000201416,
10,-0.00976563,0.000299072,
12,-0.000610352,0.000305176,
14,0.00732422,0.000378418,
16,-0.00183105,0.000396729,
18,-0.00488281,0.000445557,
20,-0.00244141,0.000469971,
22,0.00244141,0.000494385,
24,0.012207,0.000616455,
26,-0.00366211,0.000653076,
28,0.00488281,0.000701904,
30,-0.00549316,0.000756836,
32,0.00244141,0.00078125,
34,-0.000610352,0.000787354,
36,-0.00366211,0.000823975,
38,0.0128174,0.000952148,
40,-0.00427246,0.000994873,
42,-0.010376,0.00109863,
44,-0.0012207,0.00111084,
46,0.00427246,0.00115356,
48,0.00488281,0.00120239,
50,-0.00488281,0.00125122,
52,-0.000610352,0.00125732,
54,-0.0012207,0.00126953,
56,-0.00549316,0.00132446,
58,-0.0012207,0.00133667,
60,0.00305176,0.00136719,
62,0.0012207,0.00137939,
64,0.000610352,0.0013855,
66,-0.0012207,0.00139771,
68,0.012207,0.00151978,
70,-0.000610352,0.00152588,
72,-0.00549316,0.00158081,
74,0.00488281,0.00162964,
76,0.000610352,0.00163574,
78,0.00671387,0.00170288,
80,-0.00427246,0.00174561,
82,-0.00183105,0.00176392,
84,-0.000610352,0.00177002,
86,0.0012207,0.00178223,
88,0.0012207,0.00179443,
90,0.00366211,0.00183105,
92,0.00854492,0.0019165,
94,0,0.0019165,
96,-0.00366211,0.00195313,
98,0.0012207,0.00196533,
100,0.0170898,0.00213623,
102,-0.00488281,0.00218506,
104,-0.00671387,0.0022522,
106,0.00732422,0.00232544,
108,-0.00366211,0.00236206,
110,0.00366211,0.00239868,
112,0.00488281,0.00244751,
114,-0.00244141,0.00247192,
116,0.00427246,0.00251465,
118,-0.00793457,0.00259399,
120,-0.000610352,0.0026001,
122,0.00305176,0.00263062,
124,-0.0012207,0.00264282,
126,0.00183105,0.00266113,
128,-0.00366211,0.00269775,
130,-0.00488281,0.00274658,
132,0.00793457,0.00282593,
134,0.0140381,0.00296631,
136,-0.00671387,0.00303345,
138,-0.00488281,0.00308228,
140,0.0140381,0.00322266,
142,-0.00244141,0.00324707,
144,-0.00305176,0.00327759,
146,-0.00427246,0.00332031,
148,-0.00854492,0.00340576,
150,0.00183105,0.00342407,
152,0,0.00342407,
154,-0.00488281,0.0034729,
156,-0.00854492,0.00355835,
158,0.000610352,0.00356445,
160,-0.000610352,0.00357056,
162,-0.00305176,0.00360107,
164,-0.00366211,0.0036377,
166,-0.00305176,0.00366821,
168,-0.00244141,0.00369263,
170,-0.00366211,0.00372925,
172,0.000610352,0.00373535,
174,0.00732422,0.00380859,
176,-0.0152588,0.00396118,
178,0.000610352,0.00396729,
180,0.00305176,0.0039978,
182,-0.00305176,0.00402832,
184,-0.00183105,0.00404663,
186,-0.00671387,0.00411377,
188,-0.000610352,0.00411987,
190,-0.000610352,0.00412598,
192,0.00305176,0.00415649,
194,-0.00244141,0.00418091,
196,0.00183105,0.00419922,
198,0.0152588,0.00435181,
200,0.000610352,0.0043457,
202,-0.00366211,0.0043457,
204,0.0012207,0.00429077,
206,0.00183105,0.00424805,
208,0.00732422,0.00429688,
210,-0.0109863,0.00430908,
212,0.00854492,0.00438843,
214,-0.010376,0.00441895,
216,-0.00610352,0.00446167,
218,0.00854492,0.00449829,
220,-0.000610352,0.00447998,
222,-0.00244141,0.00447998,
224,0.00793457,0.00443726,
226,-0.00610352,0.00446167,
228,0,0.00441284,
230,0.0115967,0.00447388,
232,-0.00671387,0.0045166,
234,-0.00183105,0.00452881,
236,0,0.00449219,
238,0.00183105,0.00438232,
240,-0.00183105,0.00435791,
242,-0.00366211,0.00429077,
244,0,0.00427856,
246,0.000610352,0.00424194,
248,0.0109863,0.00430298,
250,-0.0134277,0.00438843,
252,0.00183105,0.00440063,
254,0.00244141,0.00441284,
256,0.0012207,0.00437012,
258,0.00183105,0.00437622,
260,-0.00488281,0.00439453,
262,-0.00244141,0.00440674,
264,-0.00305176,0.00443115,
266,0.0012207,0.00443115,
268,0.00610352,0.00437012,
270,-0.0012207,0.00437622,
272,-0.00305176,0.00435181,
274,0.00671387,0.00437012,
276,-0.00488281,0.00441284,
278,-0.0012207,0.00435791,
280,0.0134277,0.00444946,
282,-0.00549316,0.00448608,
284,-0.00488281,0.00452881,
286,-0.00366211,0.00455322,
288,0.00244141,0.00456543,
290,-0.00366211,0.00456543,
292,-0.0012207,0.00449219,
294,-0.00244141,0.0045166,
296,-0.0012207,0.00449219,
298,-0.00610352,0.00454102,
300,-0.00305176,0.00440063,
302,0.00366211,0.00438843,
304,0.00610352,0.00438232,
306,-0.00671387,0.00437622,
308,-0.00305176,0.00437012,
310,-0.000610352,0.0043396,
312,0.0012207,0.00430298,
314,0.00244141,0.00430298,
316,-0.00915527,0.00435181,
318,0.0012207,0.00428467,
320,0.00854492,0.00436401,
322,-0.00610352,0.00439453,
324,-0.00488281,0.00443115,
326,0.000610352,0.00441895,
328,0.00427246,0.00442505,
330,0.000610352,0.00438232,
332,0.00610352,0.00436401,
334,-0.0140381,0.00436401,
336,0.00305176,0.00432739,
338,0.00305176,0.00430908,
340,0.00244141,0.00419312,
342,-0.00244141,0.00419312,
344,-0.00305176,0.00419312,
346,-0.00305176,0.00418091,
348,0.000610352,0.00410156,
350,-0.00305176,0.00411377,
352,0.00366211,0.00415039,
354,0.00549316,0.00415649,
356,0,0.00407104,
358,-0.00549316,0.00411987,
360,0.00427246,0.00415649,
362,0.00427246,0.0041687,
364,-0.0012207,0.00414429,
366,0.00549316,0.0041687,
368,-0.00488281,0.00419312,
370,-0.0012207,0.0041687,
372,0.0012207,0.0041748,
374,-0.00183105,0.00411987,
376,0.000610352,0.00397339,
378,0.00244141,0.0039917,
380,-0.00305176,0.0039917,
382,-0.00305176,0.0039917,
384,-0.0012207,0.0039856,
386,-0.00183105,0.00393677,
388,0.00488281,0.00397949,
390,-0.010376,0.00407715,
392,-0.00183105,0.00406494,
394,-0.00610352,0.00410156,
396,-0.000610352,0.00408936,
398,0.00244141,0.00396118,
400,-0.00732422,0.00402832,
402,-0.00732422,0.00406494,
404,0.00366211,0.00408936,
406,0.00610352,0.00413208,
408,-0.00305176,0.00408936,
410,-0.00488281,0.00402832,
412,-0.00549316,0.0039978,
414,0.00183105,0.00391235,
416,-0.0012207,0.00386353,
418,-0.00244141,0.00380249,
420,-0.00488281,0.00384521,
422,-0.00183105,0.00383911,
424,0,0.00375977,
426,-0.00183105,0.00371704,
428,0.000610352,0.00372314,
430,-0.00366211,0.0036438,
432,0.0012207,0.00358887,
434,-0.0012207,0.00358276,
436,-0.00305176,0.00361328,
438,-0.00183105,0.00361328,
440,0.00549316,0.0036499,
442,-0.0012207,0.00362549,
444,0.00976563,0.00372314,
446,-0.00732422,0.00379028,
448,-0.00183105,0.00369873,
450,0.00732422,0.0036377,
452,0.010376,0.00372314,
454,-0.00610352,0.00375977,
456,-0.00427246,0.00379028,
458,0.00854492,0.00385742,
460,-0.00732422,0.00388184,
462,-0.00183105,0.00387573,
464,0.00366211,0.00388184,
466,-0.00305176,0.00390015,
468,-0.00244141,0.00386353,
470,0.000610352,0.00385742,
472,-0.00183105,0.00384521,
474,0.000610352,0.00378418,
476,0,0.00373535,
478,0,0.00372314,
480,0,0.00358887,
482,0.00488281,0.00358276,
484,-0.00427246,0.00357666,
486,0.000610352,0.00354614,
488,0.00976563,0.00361938,
490,-0.00549316,0.0036377,
492,0.00671387,0.00369263,
494,-0.000610352,0.00367432,
496,0.00244141,0.00368652,
498,0.000610352,0.00363159,
500,-0.00366211,0.0036377,
502,0.0012207,0.00361328,
504,-0.00183105,0.00357056,
506,-0.00244141,0.00352783,
508,0,0.00349731,
510,-0.00305176,0.00352173,
512,0.00305176,0.00354004,
514,-0.0012207,0.00352783,
516,0.0012207,0.00344849,
518,0.000610352,0.00344238,
520,0.00549316,0.00341187,
522,0.0109863,0.00346069,
524,-0.00366211,0.00344849,
526,0.012207,0.00356445,
528,-0.00366211,0.00355835,
530,-0.000610352,0.00355835,
532,0.00305176,0.00352783,
534,0.0012207,0.00339966,
536,0.00305176,0.00339966,
538,-0.00366211,0.00340576,
540,-0.00732422,0.00345459,
542,0,0.00343018,
544,0.00427246,0.00344238,
546,0.0012207,0.00342407,
548,0.00671387,0.00348511,
550,-0.00244141,0.003479,
552,-0.00305176,0.0034729,
554,0.00549316,0.0034729,
556,-0.00366211,0.00350952,
558,0.000610352,0.00346069,
560,0.00671387,0.00348511,
562,-0.00549316,0.00349731,
564,-0.000610352,0.00349121,
566,0.0012207,0.00344849,
568,-0.00305176,0.00343018,
570,0.00488281,0.0034668,
572,0.00610352,0.00351562,
574,0.0012207,0.00350952,
576,-0.00488281,0.00355225,
578,0.0012207,0.00354004,
580,-0.0012207,0.00352173,
582,0.00427246,0.00353394,
584,-0.00549316,0.00357666,
586,-0.000610352,0.00356445,
588,-0.00305176,0.00354614,
590,0.000610352,0.00344849,
592,0.00488281,0.003479,
594,-0.00732422,0.00349121,
596,-0.00305176,0.00351562,
598,0.00549316,0.00354614,
600,-0.000610352,0.003479,
602,0,0.00340576,
604,0.00427246,0.00341187,
606,-0.000610352,0.00335693,
608,-0.0012207,0.00333862,
610,0.0201416,0.00349121,
612,-0.0012207,0.00344849,
614,-0.0134277,0.00356445,
616,0.00183105,0.00357056,
618,0.00305176,0.00357666,
620,-0.00366211,0.00356445,
622,0,0.00354614,
624,-0.00732422,0.00361938,
626,-0.012207,0.00372314,
628,0.00488281,0.00376587,
630,-0.0012207,0.00374146,
632,0,0.00372925,
634,0,0.00371704,
636,0.000610352,0.00369263,
638,-0.00305176,0.00370483,
640,0.000610352,0.00365601,
642,0.00305176,0.00367432,
644,0.00305176,0.00360718,
646,-0.0012207,0.00354614,
648,0.000610352,0.00353394,
650,0.0012207,0.0034729,
652,0.00244141,0.00339355,
654,0.00732422,0.00340576,
656,0.0012207,0.00337524,
658,-0.00244141,0.00331421,
660,0.00427246,0.00328369,
662,0.00610352,0.00332642,
664,-0.00366211,0.00332642,
666,0,0.0032959,
668,-0.000610352,0.00327759,
670,0.0012207,0.00328369,
672,-0.00305176,0.0032959,
674,-0.00488281,0.00333862,
676,-0.00183105,0.00335693,
678,-0.00244141,0.00338135,
680,0.000610352,0.00338745,
682,-0.00671387,0.00340576,
684,0,0.00336304,
686,-0.00732422,0.00343018,
688,0.000610352,0.00333862,
690,-0.0012207,0.0032959,
692,0.00183105,0.00324707,
694,-0.00549316,0.0032959,
696,0,0.00327148,
698,0.0012207,0.00327759,
700,0.00610352,0.003302,
702,0.0109863,0.00339966,
704,-0.0140381,0.00352173,
706,-0.00488281,0.00354614,
708,0.00732422,0.00361938,
710,0,0.00358887,
712,-0.00549316,0.00361328,
714,-0.0012207,0.00361328,
716,0.00244141,0.00362549,
718,0.0012207,0.00363159,
720,-0.00732422,0.0036499,
722,0.0195313,0.00373535,
724,0,0.00369873,
726,-0.00671387,0.0036438,
728,0.00671387,0.00367432,
730,0.00244141,0.00369263,
732,0.00427246,0.00370483,
734,-0.0012207,0.00370483,
736,-0.00305176,0.00370483,
738,0.00366211,0.00370483,
740,0.00549316,0.00368652,
742,0.00244141,0.00371094,
744,0.00305176,0.00369873,
746,0,0.00368652,
748,0.00488281,0.00366821,
750,0.00244141,0.00366821,
752,0.00671387,0.00370483,
754,-0.0012207,0.00366211,
756,0.0115967,0.00374146,
758,-0.00366211,0.00377197,
760,-0.00366211,0.00374146,
762,0.0115967,0.00380249,
764,0.00244141,0.0038208,
766,-0.00488281,0.00385742,
768,0.00244141,0.00385132,
770,0.00366211,0.00383911,
772,0.000610352,0.00378418,
774,-0.000610352,0.00377808,
776,0.00549316,0.00378418,
778,-0.00610352,0.00383301,
780,-0.0012207,0.00383301,
782,0.012207,0.00391235,
784,-0.00976563,0.00395508,
786,-0.0012207,0.00396118,
788,-0.00732422,0.00400391,
790,-0.00183105,0.00401611,
792,0.00183105,0.0039856,
794,0.00427246,0.00395508,
796,-0.0134277,0.00405884,
798,0.00976563,0.00410156,
800,-0.00366211,0.00413208,
802,0.00427246,0.0041748,
804,0.000610352,0.00413818,
806,0.00244141,0.00415649,
808,0.0012207,0.00415649,
810,-0.00671387,0.00402222,
812,0.000610352,0.00401611,
814,-0.000610352,0.00388794,
816,0,0.00386963,
818,0.0012207,0.00385132,
820,-0.00183105,0.00383301,
822,0.0177002,0.00401001,
824,-0.00854492,0.00402222,
826,-0.00366211,0.00393677,
828,0.00244141,0.00391235,
830,0.00183105,0.00391846,
832,-0.00488281,0.00396729,
834,-0.00671387,0.00403442,
836,-0.00366211,0.00406494,
838,-0.00488281,0.00408325,
840,-0.0012207,0.00408936,
842,0.00549316,0.00411377,
844,-0.00427246,0.00412598,
846,-0.000610352,0.00411987,
848,0.0109863,0.00422363,
850,-0.000610352,0.00421753,
852,-0.000610352,0.00419922,
854,0.00244141,0.00415039,
856,-0.0012207,0.00415039,
858,0.00488281,0.0041748,
860,-0.0012207,0.00414429,
862,-0.000610352,0.00408936,
864,0.0012207,0.00406494,
866,0.00488281,0.00411377,
868,-0.00244141,0.00413208,
870,0.00549316,0.0041748,
872,0.00976563,0.00424194,
874,0.0109863,0.00430298,
876,-0.00732422,0.00435791,
878,-0.0012207,0.0043457,
880,0.0128174,0.00446777,
882,0.00488281,0.00444946,
884,-0.00244141,0.00447388,
886,-0.00366211,0.00443726,
888,-0.00244141,0.00445557,
890,0.00976563,0.00454102,
892,-0.0012207,0.00453491,
894,0.0115967,0.00459595,
896,-0.00976563,0.0046936,
898,0.0146484,0.00482788,
900,-0.0012207,0.00477905,
902,-0.00183105,0.0046875,
904,0.000610352,0.00455322,
906,0.00305176,0.00453491,
908,-0.0012207,0.00447388,
910,-0.00366211,0.0045105,
912,-0.00244141,0.00447998,
914,0.000610352,0.00447388,
916,0.010376,0.00455322,
918,-0.0012207,0.00455322,
920,-0.00854492,0.00456543,
922,0.00427246,0.00441284,
924,0.00427246,0.00445557,
926,0.0012207,0.00440063,
928,-0.00244141,0.00435791,
930,0.00427246,0.00437622,
932,-0.00427246,0.00437622,
934,-0.000610352,0.00437012,
936,-0.00244141,0.00436401,
938,0.00244141,0.00435181,
940,0,0.00429688,
942,0.00244141,0.00429688,
944,-0.000610352,0.00427246,
946,0.00366211,0.00430908,
948,-0.00488281,0.00430908,
950,0,0.00428467,
952,0.0012207,0.00422974,
954,0.00671387,0.00428467,
956,-0.010376,0.00427246,
958,-0.00488281,0.00428467,
960,-0.00244141,0.00427246,
962,0.00793457,0.00423584,
964,-0.00488281,0.00426025,
966,-0.00854492,0.00429688,
968,0.00366211,0.00430908,
970,-0.00305176,0.00430298,
972,0.010376,0.00440063,
974,-0.0146484,0.00454102,
976,-0.00610352,0.00454712,
978,0.00183105,0.00450439,
980,0.000610352,0.00449829,
982,-0.00732422,0.00444946,
984,0.00366211,0.00438843,
986,-0.00488281,0.00442505,
988,-0.00732422,0.00442505,
990,0.00183105,0.00442505,
992,0.000610352,0.00441284,
994,0,0.00437012,
996,-0.000610352,0.00424194,
998,-0.0012207,0.00415649,
1000,0.00244141,0.00414429,
1002,-0.00488281,0.00415039,
1004,0.00427246,0.00418701,
1006,0.00610352,0.00422363,
1008,-0.00854492,0.00429688,
1010,-0.00183105,0.00424805,
1012,-0.000610352,0.00424805,
1014,0,0.00424194,
1016,-0.00427246,0.00428467,
1018,-0.00549316,0.00432739,
1020,-0.000610352,0.00431519,
1022,-0.00549316,0.00419312,
1024,0.000610352,0.00411377,
1026,0.000610352,0.00408325,
1028,0.00549316,0.00411377,
1030,0.00732422,0.0041687,
1032,0.00915527,0.00421143,
1034,-0.0109863,0.00425415,
1036,0.00488281,0.00426636,
1038,0.00976563,0.00431519,
1040,-0.00244141,0.00432739,
1042,0,0.00427246,
1044,-0.00305176,0.00426025,
1046,-0.000610352,0.00426025,
1048,-0.00366211,0.00418701,
1050,0.000610352,0.00418701,
1052,0.00671387,0.00424805,
1054,-0.00244141,0.00424805,
1056,0.00305176,0.00426636,
1058,0.000610352,0.00422363,
1060,0.00610352,0.00427246,
1062,-0.00244141,0.00429077,
1064,0.00610352,0.0043396,
1066,0.0109863,0.00440063,
1068,-0.00976563,0.00447388,
1070,-0.000610352,0.00442505,
1072,0.00854492,0.00441284,
1074,0.00366211,0.0043396,
1076,-0.00244141,0.00429077,
1078,0.00183105,0.00429688,
1080,-0.00244141,0.00419312,
1082,0.00549316,0.00419922,
1084,-0.00549316,0.00422974,
1086,0,0.00419312,
1088,0.00427246,0.00421143,
1090,0.00305176,0.00414429,
1092,-0.00610352,0.00419312,
1094,-0.0012207,0.00408936,
1096,-0.00244141,0.00401611,
1098,0,0.00386963,
1100,-0.000610352,0.00386353,
1102,0,0.00384521,
1104,-0.000610352,0.00384521,
1106,0.00732422,0.00388794,
1108,0.0140381,0.00401611,
1110,-0.00793457,0.00405884,
1112,-0.010376,0.00413818,
1114,0.0140381,0.00427246,
1116,0.0012207,0.00418091,
1118,-0.00610352,0.00422974,
1120,0.0012207,0.00415649,
1122,-0.00976563,0.00421143,
1124,-0.00427246,0.00421143,
1126,-0.00427246,0.00424194,
1128,0.00366211,0.00425415,
1130,0.0012207,0.00422363,
1132,-0.00305176,0.00421143,
1134,-0.00183105,0.00422363,
1136,-0.0012207,0.00421143,
1138,0.00427246,0.00422974,
1140,-0.000610352,0.00423584,
1142,0.000610352,0.00421753,
1144,0.0012207,0.00422363,
1146,0.000610352,0.00419312,
1148,0.0012207,0.00415649,
1150,0.0012207,0.0041687,
1152,-0.00244141,0.00418091,
1154,0.00244141,0.00413818,
1156,0,0.00403442,
1158,0.000610352,0.0039917,
1160,0.00244141,0.0039917,
1162,0.00305176,0.00394287,
1164,-0.00244141,0.00391846,
1166,0.0140381,0.00397339,
1168,-0.010376,0.00404053,
1170,0.00366211,0.00404663,
1172,-0.00366211,0.00397949,
1174,0.0012207,0.00384521,
1176,0.00244141,0.00380859,
1178,-0.00244141,0.0038147,
1180,-0.00854492,0.00389404,
1182,-0.00610352,0.00388184,
1184,0.00244141,0.00386963,
1186,-0.00732422,0.00389404,
1188,0.00671387,0.00388794,
1190,-0.010376,0.00397339,
1192,-0.00793457,0.00404663,
1194,0.00793457,0.00412598,
1196,-0.00366211,0.00415649,
1198,-0.00183105,0.0041626,
1200,-0.00549316,0.00419312,
1202,-0.00183105,0.0041626,
1204,0,0.00411987,
1206,-0.00488281,0.00410767,
1208,-0.00244141,0.00404663,
1210,-0.00427246,0.00407104,
1212,-0.00915527,0.00415649,
1214,0.00427246,0.00419922,
1216,0,0.00415649,
1218,-0.00183105,0.00411987,
1220,0.00244141,0.00413818,
1222,0.00488281,0.00413208,
1224,-0.010376,0.00422974,
1226,0.00305176,0.00425415,
1228,0.00488281,0.00424805,
1230,-0.00488281,0.00422363,
1232,-0.00244141,0.00415649,
1234,-0.00244141,0.00407104,
1236,-0.00671387,0.00408936,
1238,0.00366211,0.00402832,
1240,0.00366211,0.00404053,
1242,-0.00244141,0.00406494,
1244,0,0.00403442,
1246,0.00305176,0.00405884,
1248,0.00366211,0.00405884,
1250,0.00610352,0.00411377,
1252,-0.00244141,0.00407104,
1254,0.0012207,0.00405884,
1256,0.00610352,0.00408936,
1258,0,0.00408325,
1260,-0.00183105,0.00404053,
1262,0.00244141,0.00404053,
1264,-0.00366211,0.00401611,
1266,0.00610352,0.00396729,
1268,0.00305176,0.00390015,
1270,-0.0128174,0.00402222,
1272,0.00488281,0.0039856,
1274,0.000610352,0.00395508,
1276,-0.00854492,0.00401611,
1278,-0.000610352,0.00400391,
1280,0.0012207,0.0039917,
1282,-0.0012207,0.00394897,
1284,-0.00671387,0.00396118,
1286,-0.00183105,0.00397949,
1288,0.00854492,0.00402222,
1290,-0.0012207,0.00400391,
1292,0.000610352,0.00394897,
1294,0.00427246,0.00397949,
1296,0.000610352,0.00396118,
1298,0,0.00396118,
1300,0.00244141,0.00397949,
1302,0.00183105,0.0039978,
1304,0.00244141,0.00401611,
1306,0.00793457,0.00402222,
1308,-0.00183105,0.00390015,
1310,-0.00244141,0.00384521,
1312,0.00488281,0.00379028,
1314,0.00549316,0.00370483,
1316,-0.00488281,0.00374146,
1318,-0.0012207,0.00369263,
1320,0.00305176,0.00371094,
1322,-0.00366211,0.0036499,
1324,-0.00671387,0.00367432,
1326,0.00793457,0.00371094,
1328,0.00183105,0.00369263,
1330,-0.000610352,0.00368652,
1332,0.00549316,0.00371094,
1334,0.00305176,0.00372314,
1336,-0.00549316,0.00376587,
1338,0.00427246,0.00376587,
1340,0.00305176,0.00379028,
1342,0.000610352,0.00379028,
1344,-0.000610352,0.00378418,
1346,0.0012207,0.00379028,
1348,-0.00366211,0.0038147,
1350,0.00183105,0.0038208,
1352,0.00305176,0.0038269,
1354,0.00183105,0.0038208,
1356,0.000610352,0.0038269,
1358,0,0.0038208,
1360,0.00366211,0.00383301,
1362,-0.00183105,0.0038208,
1364,0.000610352,0.00380249,
1366,0.00427246,0.00370483,
1368,0.0140381,0.00374146,
1370,-0.012207,0.0038269,
1372,0.00427246,0.00383301,
1374,0,0.0038208,
1376,0,0.00379639,
1378,0.00488281,0.0038208,
1380,-0.00305176,0.00376587,
1382,-0.00366211,0.00374146,
1384,0.000610352,0.00372314,
1386,-0.00244141,0.00367432,
1388,0.0012207,0.00361938,
1390,0,0.00351562,
1392,-0.000610352,0.00344238,
1394,0.00183105,0.00338135,
1396,-0.00305176,0.00337524,
1398,0.0012207,0.00336914,
1400,-0.00366211,0.00335083,
1402,-0.00305176,0.00336304,
1404,0.00610352,0.00342407,
1406,-0.00244141,0.00339966,
1408,-0.000610352,0.00338135,
1410,0.00549316,0.00339355,
1412,-0.0115967,0.00341797,
1414,0.0012207,0.00338745,
1416,0.00854492,0.0034729,
1418,-0.00366211,0.00349121,
1420,0,0.0034668,
1422,0.00854492,0.00350342,
1424,-0.0201416,0.00360107,
1426,0.00488281,0.00361938,
1428,0,0.00357056,
1430,-0.00305176,0.00355225,
1432,-0.00366211,0.00356445,
1434,-0.00549316,0.00359497,
1436,0.00610352,0.00358887,
1438,-0.00244141,0.00357666,
1440,-0.0012207,0.00355225,
1442,-0.00244141,0.00355225,
1444,0.00488281,0.00360107,
1446,0.000610352,0.00357666,
1448,-0.00671387,0.00360718,
1450,0.00305176,0.00357666,
1452,-0.00732422,0.00362549,
1454,0.0012207,0.00362549,
1456,-0.00183105,0.00358276,
1458,-0.00305176,0.00361328,
1460,0.0109863,0.00370483,
1462,-0.00671387,0.00374756,
1464,-0.00732422,0.00378418,
1466,0.00183105,0.00374146,
1468,0.00305176,0.00374146,
1470,0.00915527,0.00370483,
1472,-0.00366211,0.00369263,
1474,-0.00488281,0.00373535,
1476,0.000610352,0.00365601,
1478,0.0012207,0.00366211,
1480,-0.00183105,0.00366821,
1482,-0.0012207,0.00366821,
1484,0.00244141,0.00362549,
1486,-0.00427246,0.0036499,
1488,-0.00671387,0.00363159,
1490,0.000610352,0.00362549,
1492,-0.000610352,0.00362549,
1494,0.00183105,0.00360107,
1496,0,0.00359497,
1498,-0.00427246,0.0036377,
1500,0,0.00361328,
1502,0.00305176,0.00362549,
1504,0.00732422,0.00367432,
1506,-0.00183105,0.00361328,
1508,0.00610352,0.00365601,
1510,0.000610352,0.0036377,
1512,0.00610352,0.0036499,
1514,0,0.00359497,
1516,0.00366211,0.00358276,
1518,0.00183105,0.00358887,
1520,0.00305176,0.00358887,
1522,0,0.00355225,
1524,0,0.00348511,
1526,0.00366211,0.00344238,
1528,-0.0012207,0.00343628,
1530,0.0012207,0.00344238,
1532,0.00305176,0.00341797,
1534,0.0012207,0.00339966,
1536,0.00549316,0.00339966,
1538,-0.0012207,0.00336914,
1540,0.00183105,0.00335693,
1542,0.00427246,0.00339355,
1544,0.00244141,0.00341187,
1546,0.00244141,0.00342407,
1548,0.00305176,0.00341797,
1550,0.0012207,0.00341187,
1552,0.0012207,0.00339355,
1554,0,0.00337524,
1556,0.00915527,0.00346069,
1558,0.00427246,0.00350342,
1560,-0.00854492,0.00355225,
1562,0.00244141,0.00355835,
1564,0.00427246,0.00359497,
1566,0.000610352,0.00355835,
1568,-0.00183105,0.00343628,
1570,-0.00305176,0.00334473,
1572,-0.00366211,0.00333862,
1574,-0.000610352,0.00334473,
1576,-0.00366211,0.00338135,
1578,-0.000610352,0.00333862,
1580,0.00366211,0.00334473,
1582,-0.0012207,0.00332031,
1584,0.00366211,0.00335083,
1586,-0.00915527,0.00341797,
1588,0.0012207,0.00341797,
1590,0.00549316,0.0034729,
1592,0.00427246,0.00350952,
1594,-0.00854492,0.00357666,
1596,-0.00244141,0.00357056,
1598,0.00183105,0.00357666,
1600,-0.00183105,0.00355835,
1602,-0.00488281,0.00357666,
1604,0.00732422,0.00358887,
1606,-0.0115967,0.00368042,
1608,0.00183105,0.00369263,
1610,0.00366211,0.00367432,
1612,0.0115967,0.00367432,
1614,0.00183105,0.00368042,
1616,-0.0152588,0.00374756,
1618,0.00793457,0.00379028,
1620,0.00549316,0.00384521,
1622,-0.00366211,0.00379639,
1624,-0.00244141,0.00361938,
1626,0.00427246,0.00361328,
1628,-0.00305176,0.0036438,
1630,-0.00610352,0.00367432,
1632,0.00244141,0.00366211,
1634,0.00305176,0.0036377,
1636,0.000610352,0.00358276,
1638,0,0.00355835,
1640,-0.00244141,0.00357056,
1642,-0.00183105,0.00356445,
1644,-0.00366211,0.00355225,
1646,0.00305176,0.00357666,
1648,0.00732422,0.00358276,
1650,0.00366211,0.00358887,
1652,-0.00427246,0.00355835,
1654,0.00854492,0.00363159,
1656,0.00549316,0.00366821,
1658,0.00366211,0.00367432,
1660,0.00488281,0.00361328,
1662,0.00915527,0.0036377,
1664,-0.00488281,0.00361328,
1666,0.00244141,0.00361938,
1668,0.00244141,0.00361328,
1670,0.00488281,0.00357056,
1672,0.0012207,0.00354614,
1674,0.00488281,0.00354614,
1676,0.000610352,0.00354614,
1678,-0.00427246,0.00357666,
1680,0.00244141,0.00358276,
1682,0.00549316,0.00362549,
1684,0.00366211,0.0036377,
1686,0.000610352,0.00360107,
1688,0.00671387,0.00360107,
1690,-0.00366211,0.00363159,
1692,-0.00671387,0.00369263,
1694,0.012207,0.00379639,
1696,0.000610352,0.00380249,
1698,0.000610352,0.00376587,
1700,-0.00305176,0.00379639,
1702,-0.00183105,0.00378418,
1704,-0.000610352,0.00371704,
1706,-0.00244141,0.00372314,
1708,0.00305176,0.00369263,
1710,-0.00366211,0.00372314,
1712,-0.0012207,0.00367432,
1714,0.00610352,0.00373535,
1716,-0.000610352,0.00370483,
1718,0.00549316,0.00374146,
1720,0.00671387,0.00377808,
1722,-0.00671387,0.00384521,
1724,0.00732422,0.00391846,
1726,0,0.00388184,
1728,0,0.00386963,
1730,0,0.00385742,
1732,-0.0012207,0.00383911,
1734,0.00244141,0.00385132,
1736,-0.00427246,0.00383911,
1738,0.00366211,0.00386353,
1740,0.000610352,0.00385132,
1742,0.00183105,0.0038269,
1744,0.00366211,0.00383911,
1746,0.00244141,0.00383911,
1748,0.00183105,0.0038269,
1750,0.00183105,0.00383301,
1752,0.0012207,0.00383301,
1754,0,0.00383301,
1756,0.00183105,0.00375977,
1758,0.000610352,0.00372314,
1760,0,0.0036377,
1762,-0.000610352,0.00361938,
1764,0.000610352,0.00358276,
1766,0.0109863,0.00368652,
1768,-0.00366211,0.00370483,
1770,0.0134277,0.00380859,
1772,-0.00366211,0.00380859,
1774,-0.00976563,0.00390015,
1776,0.00488281,0.00391235,
1778,0.00244141,0.00393066,
1780,-0.00366211,0.00393066,
1782,-0.00366211,0.00395508,
1784,-0.00793457,0.0039978,
1786,-0.00366211,0.00394287,
1788,0.00305176,0.00396118,
1790,0,0.00390625,
1792,0.00305176,0.00389404,
1794,-0.000610352,0.0038147,
1796,0.000610352,0.00379639,
1798,-0.00366211,0.0038147,
1800,-0.00183105,0.0038147,
1802,-0.00183105,0.00378418,
1804,0.00915527,0.00380249,
1806,-0.00427246,0.00372925,
1808,-0.00305176,0.00374146,
1810,0.00305176,0.00373535,
1812,-0.00183105,0.0036377,
1814,-0.00305176,0.0036499,
1816,0.0012207,0.00350952,
1818,-0.00427246,0.0034729,
1820,0.0012207,0.00343018,
1822,-0.00244141,0.00341797,
1824,-0.0012207,0.00340576,
1826,-0.0012207,0.00337524,
1828,-0.00305176,0.00337524,
1830,0.00305176,0.00334473,
1832,0.0012207,0.00333252,
1834,0.00427246,0.00334473,
1836,-0.00305176,0.00336914,
1838,0.0146484,0.00351562,
1840,-0.0109863,0.00360107,
1842,-0.00244141,0.00360718,
1844,0.00305176,0.00360107,
1846,0.00183105,0.00358887,
1848,-0.00183105,0.00353394,
1850,-0.00610352,0.00355835,
1852,-0.000610352,0.00352173,
1854,-0.000610352,0.00344238,
1856,0.00244141,0.00341187,
1858,0.00183105,0.00339355,
1860,-0.00976563,0.00344238,
1862,-0.00183105,0.00336914,
1864,-0.0012207,0.00333252,
1866,0.00183105,0.00332642,
1868,-0.000610352,0.00330811,
1870,-0.00427246,0.003302,
1872,0.012207,0.00341187,
1874,-0.0134277,0.00349731,
1876,0.00610352,0.00355225,
1878,0.0177002,0.00368652,
1880,-0.0128174,0.00379028,
1882,-0.00305176,0.00376587,
1884,0.00793457,0.00380859,
1886,-0.00549316,0.00385742,
1888,0.00976563,0.00388794,
1890,-0.00793457,0.00393066,
1892,-0.00793457,0.00394287,
1894,-0.000610352,0.0038269,
1896,0.00976563,0.00391846,
1898,-0.00793457,0.0039917,
1900,-0.00488281,0.00401001,
1902,-0.0012207,0.00400391,
1904,0.00183105,0.00401611,
1906,-0.00732422,0.00406494,
1908,0.00183105,0.00405273,
1910,-0.00976563,0.00411377,
1912,-0.00244141,0.00412598,
1914,0.00366211,0.00410156,
1916,0.00427246,0.00413818,
1918,-0.00671387,0.00415039,
1920,0.00244141,0.00410767,
1922,0.00427246,0.00408325,
1924,-0.000610352,0.00401611,
1926,0.00244141,0.00404053,
1928,-0.00427246,0.00408325,
1930,0.00244141,0.00410767,
1932,0.00305176,0.00412598,
1934,-0.00366211,0.00413818,
1936,0.0115967,0.00421143,
1938,-0.00366211,0.00421143,
1940,0.000610352,0.00421143,
1942,0.00183105,0.00421143,
1944,0.000610352,0.00418091,
1946,0.00183105,0.0041748,
1948,-0.00366211,0.00419312,
1950,-0.00427246,0.00421753,
1952,0.000610352,0.00421143,
1954,0,0.00421143,
1956,0.00244141,0.00421753,
1958,0.00549316,0.00426636,
1960,0.000610352,0.00427246,
1962,-0.00244141,0.00429077,
1964,0.00488281,0.0043335,
1966,0.00427246,0.00426636,
1968,-0.000610352,0.00423584,
1970,-0.00244141,0.00412598,
1972,0,0.00408936,
1974,0,0.0039917,
1976,0.0012207,0.00395508,
1978,0.000610352,0.00393677,
1980,0.00244141,0.00392456,
1982,0.0134277,0.00402222,
1984,-0.00183105,0.00396118,
1986,0.00244141,0.00394897,
1988,0.000610352,0.00392456,
1990,0,0.00392456,
1992,0.00244141,0.00391846,
1994,0.000610352,0.00391846,
1996,-0.00305176,0.00394287,
1998,-0.00366211,0.00394287,
2000,-0.00366211,0.00396118,
2002,-0.000610352,0.00394897,
2004,0.00854492,0.00394287,
2006,-0.00793457,0.00397949,
2008,-0.00366211,0.0039856,
2010,0.00549316,0.00401001,
2012,0.00305176,0.00402222,
2014,0.00732422,0.00406494,
2016,-0.00305176,0.00408325,
2018,-0.00366211,0.00407715,
2020,0.0012207,0.00407715,
2022,0.00366211,0.00408936,
2024,0.00305176,0.00410767,
2026,-0.000610352,0.00410156,
2028,-0.00488281,0.00411987,
2030,-0.0012207,0.00410156,
2032,0.00305176,0.00411987,
2034,-0.00549316,0.00413208,
2036,0.00305176,0.00413208,
2038,0,0.0039856,
2040,0,0.00387573,
2042,0,0.00385132,
2044,-0.0012207,0.00383301,
2046,0.0158691,0.00397339,
2048,-0.000610352,0.00396118,
2050,0.00671387,0.00396729,
2052,-0.00427246,0.00400391,
2054,0.000610352,0.00400391,
2056,0.00854492,0.00406494,
2058,0.00244141,0.00407104,
2060,0.00732422,0.00404663,
2062,-0.00915527,0.00411987,
2064,-0.000610352,0.00411377,
2066,0.00244141,0.00411987,
2068,0.00610352,0.0041748,
2070,0.00671387,0.00419922,
2072,0.00732422,0.00415039,
2074,-0.00488281,0.00406494,
2076,0,0.00400391,
2078,0.00488281,0.00387573,
2080,0.000610352,0.00375366,
2082,0.0012207,0.00373535,
2084,0.0012207,0.00366821,
2086,0.00244141,0.0036377,
2088,-0.00427246,0.00358276,
2090,0.00549316,0.00355835,
2092,0.00305176,0.00350952,
2094,0,0.00350342,
2096,0.00671387,0.0034729,
2098,0.00305176,0.00342407,
2100,-0.00732422,0.00344849,
2102,0.00488281,0.00348511,
2104,0.00793457,0.00354614,
2106,0.00549316,0.00352783,
2108,-0.00732422,0.00358276,
2110,0.00366211,0.00352173,
2112,0.000610352,0.00350342,
2114,-0.000610352,0.0034729,
2116,0.000610352,0.00343628,
2118,0.000610352,0.00337524,
2120,0.00366211,0.00338745,
2122,-0.000610352,0.00335083,
2124,-0.00488281,0.00339355,
2126,0.00305176,0.00339966,
2128,0.00366211,0.00339355,
2130,0.00244141,0.00339355,
2132,-0.00549316,0.00341797,
2134,0.00671387,0.00344849,
2136,-0.00488281,0.00338135,
2138,0.012207,0.0034668,
2140,-0.0115967,0.00357666,
2142,0.000610352,0.00356445,
2144,0.0164795,0.00372314,
2146,-0.00366211,0.00374146,
2148,-0.00854492,0.00379028,
2150,0.00488281,0.00379639,
2152,-0.00549316,0.00384521,
2154,-0.00427246,0.00388794,
2156,-0.00366211,0.00390015,
2158,0.00610352,0.00390625,
2160,-0.0012207,0.00391235,
2162,-0.00854492,0.00397339,
2164,0.0012207,0.00393677,
2166,0.00671387,0.00396118,
2168,-0.00305176,0.0039856,
2170,-0.00488281,0.00401001,
2172,0,0.00401001,
2174,0.00305176,0.00404053,
2176,-0.00793457,0.00410767,
2178,-0.00305176,0.00413208,
2180,-0.00366211,0.00414429,
2182,-0.00183105,0.00402832,
2184,0.00671387,0.00407715,
2186,-0.00854492,0.00413818,
2188,0.00244141,0.00415649,
2190,-0.00183105,0.0041748,
2192,0.00183105,0.0041687,
2194,0.00183105,0.00418091,
2196,0.000610352,0.00415649,
2198,-0.00549316,0.0041748,
2200,0.000610352,0.00414429,
2202,0.000610352,0.00414429,
2204,0.00305176,0.00408936,
2206,-0.00305176,0.00404053,
2208,-0.000610352,0.00401001,
2210,0.00549316,0.00401001,
2212,0.00732422,0.00405273,
2214,-0.00427246,0.00402222,
2216,-0.00244141,0.00401611,
2218,0.00244141,0.00400391,
2220,0.00488281,0.00404053,
2222,-0.00244141,0.00402832,
2224,-0.00305176,0.00402832,
2226,0.00244141,0.00404663,
2228,-0.0012207,0.00401001,
2230,-0.0012207,0.00401001,
2232,0.000610352,0.0039856,
2234,0.00671387,0.0039978,
2236,-0.0012207,0.00397949,
2238,-0.00671387,0.00404663,
2240,0.0213623,0.00426025,
2242,0.00183105,0.00427856,
2244,-0.00915527,0.00435791,
2246,0.00793457,0.00427856,
2248,0.00549316,0.00432739,
2250,-0.00427246,0.00430298,
2252,-0.0012207,0.00427246,
2254,-0.00366211,0.00430298,
2256,0,0.00421753,
2258,0.0012207,0.00420532,
2260,0.00183105,0.00415039,
2262,-0.00427246,0.00410156,
2264,0.00244141,0.00411987,
2266,0.00427246,0.00413818,
2268,0.0012207,0.00408936,
2270,-0.0012207,0.00403442,
2272,-0.00183105,0.00397949,
2274,0.00244141,0.00395508,
2276,0.00183105,0.00397339,
2278,0.00244141,0.00394897,
2280,0.0012207,0.00395508,
2282,0.0012207,0.00395508,
2284,0.0012207,0.00395508,
2286,0.00488281,0.00397949,
2288,0.00671387,0.00400391,
2290,-0.000610352,0.00395508,
2292,-0.00549316,0.00397949,
2294,0.00366211,0.00401611,
2296,0.0012207,0.00396118,
2298,-0.000610352,0.00393677,
2300,-0.00244141,0.00388794,
2302,-0.0012207,0.00385132,
2304,0.0109863,0.00388184,
2306,-0.00366211,0.00386353,
2308,0.000610352,0.00379639,
2310,-0.000610352,0.00376587,
2312,0.0134277,0.00389404,
2314,-0.000610352,0.00389404,
2316,-0.00244141,0.00391235,
2318,0.00549316,0.00396118,
2320,0.0012207,0.00393677,
2322,-0.0012207,0.00394287,
2324,0.00366211,0.00393066,
2326,0.00793457,0.00397949,
2328,-0.0012207,0.00395508,
2330,0.00244141,0.00395508,
2332,-0.00549316,0.00395508,
2334,0,0.00388794,
2336,0.00366211,0.00387573,
2338,0.00610352,0.0038147,
2340,-0.00854492,0.00378418,
2342,-0.00732422,0.00385132,
2344,0.00610352,0.00374756,
2346,0.00427246,0.00375366,
2348,-0.00183105,0.00368652,
2350,-0.00244141,0.00366211,
2352,0,0.00360718,
2354,-0.00305176,0.00359497,
2356,0.0183105,0.00374146,
2358,-0.00671387,0.00374756,
2360,-0.00183105,0.00375366,
2362,0.00732422,0.00374146,
2364,0.00305176,0.00375977,
2366,0.00183105,0.00371094,
2368,-0.00366211,0.00371704,
2370,0.0012207,0.00368042,
2372,-0.0012207,0.00369263,
2374,0.0012207,0.00367432,
2376,-0.00183105,0.00361328,
2378,-0.000610352,0.00358887,
2380,0.0012207,0.00356445,
2382,0,0.00354614,
2384,-0.000610352,0.00348511,
2386,0.00549316,0.00345459,
2388,0.00549316,0.00348511,
2390,-0.00366211,0.00350342,
2392,-0.000610352,0.00349121,
2394,0.012207,0.00359497,
2396,-0.00305176,0.00361938,
2398,0.0012207,0.00357666,
2400,0.0134277,0.00370483,
2402,-0.00854492,0.00378418,
2404,0.00915527,0.00384521,
2406,0.0012207,0.0038269,
2408,-0.0012207,0.00383301,
2410,0.00488281,0.0038269,
2412,-0.000610352,0.00375977,
2414,0.0012207,0.00372925,
2416,0.00183105,0.00372314,
2418,0.0109863,0.00380859,
2420,-0.000610352,0.00376587,
2422,0.0012207,0.00375366,
2424,0.00854492,0.00380859,
2426,0.012207,0.00390625,
2428,-0.00671387,0.00396118,
2430,0.0012207,0.00396118,
2432,0.00732422,0.00402832,
2434,0.00793457,0.00404053,
2436,-0.00549316,0.00408325,
2438,-0.00427246,0.00405884,
2440,-0.00183105,0.00386353,
2442,0.00366211,0.00388184,
2444,0.00732422,0.00386353,
2446,0.00305176,0.0038147,
2448,-0.00854492,0.00384521,
2450,0.0012207,0.0038147,
2452,0.00366211,0.00383911,
2454,0.010376,0.00390625,
2456,-0.00915527,0.0039978,
2458,-0.0012207,0.0039978,
2460,0.00488281,0.00402832,
2462,-0.00793457,0.00406494,
2464,0.00183105,0.00405884,
2466,-0.0012207,0.00402832,
2468,0.000610352,0.00402222,
2470,0.0012207,0.00402222,
2472,0,0.00400391,
2474,0,0.00397949,
2476,-0.00427246,0.00400391,
2478,0.0189209,0.0041687,
2480,0.00549316,0.00421143,
2482,-0.00488281,0.00424805,
2484,0.00244141,0.00426025,
2486,0.00427246,0.00425415,
2488,0.00610352,0.00424805,
2490,0.00671387,0.00430908,
2492,-0.000610352,0.00426025,
2494,-0.00976563,0.00432129,
2496,0.00488281,0.00435791,
2498,0.00244141,0.00437622,
2500,-0.00549316,0.00440674,
2502,-0.00427246,0.00443726,
2504,0.00427246,0.00437012,
2506,0,0.0043335,
2508,-0.00427246,0.00437012,
2510,-0.00244141,0.00438843,
2512,-0.000610352,0.00426025,
2514,0.00366211,0.00429077,
2516,0,0.00426636,
2518,-0.00427246,0.00425415,
2520,0,0.00424194,
2522,0.00366211,0.00426636,
2524,0.0128174,0.00435791,
2526,-0.00549316,0.0043335,
2528,-0.00549316,0.00437622,
2530,0.00488281,0.00440063,
2532,0.00244141,0.00437012,
2534,-0.00183105,0.00438843,
2536,-0.00549316,0.00440674,
2538,-0.00366211,0.00438232,
2540,0,0.00429688,
2542,-0.00427246,0.00426636,
2544,0.00976563,0.00430298,
2546,-0.010376,0.00436401,
2548,-0.000610352,0.00435181,
2550,0.00305176,0.00435791,
2552,-0.00366211,0.00439453,
2554,0.0012207,0.00437622,
2556,-0.00427246,0.00423584,
2558,0.00305176,0.00419922,
2560,0.000610352,0.00418701,
2562,-0.00183105,0.00413208,
2564,0.00305176,0.00413208,
2566,0.00244141,0.00413818,
2568,0.00244141,0.00412598,
2570,0.00305176,0.00414429,
2572,0.00732422,0.00420532,
2574,-0.00549316,0.00424805,
2576,0.012207,0.00435181,
2578,-0.00366211,0.00438232,
2580,-0.000610352,0.00437622,
2582,0.010376,0.00447998,
2584,-0.000610352,0.00447998,
2586,-0.0164795,0.00458984,
2588,0.00976563,0.00463257,
2590,0.010376,0.00469971,
2592,-0.0201416,0.00489502,
2594,0.00366211,0.00480957,
2596,0.000610352,0.00478516,
2598,-0.000610352,0.00477905,
2600,-0.00366211,0.0046814,
2602,-0.00549316,0.00465088,
2604,-0.00244141,0.00458374,
2606,-0.00244141,0.00459595,
2608,-0.00366211,0.00462036,
2610,-0.000610352,0.00457764,
2612,0,0.00457153,
2614,0.0012207,0.00457153,
2616,-0.00244141,0.00457764,
2618,0.00793457,0.00454712,
2620,-0.00427246,0.00458374,
2622,0,0.00457153,
2624,0.00976563,0.00458374,
2626,-0.00427246,0.00450439,
2628,0.00183105,0.00445557,
2630,0.00183105,0.00446167,
2632,-0.00183105,0.00440674,
2634,0.000610352,0.0043335,
2636,0.00549316,0.0043335,
2638,-0.00549316,0.0043457,
2640,-0.00305176,0.00435791,
2642,0.00732422,0.00439453,
2644,0.00244141,0.0043457,
2646,0.00183105,0.0043335,
2648,-0.00793457,0.00432739,
2650,0.00183105,0.0043335,
2652,0.00732422,0.00437012,
2654,0.00244141,0.00429077,
2656,-0.00488281,0.00424805,
2658,0.000610352,0.00424194,
2660,0.0012207,0.00420532,
2662,0,0.00412598,
2664,0.00610352,0.0041687,
2666,0.00366211,0.00419312,
2668,0.00610352,0.00424805,
2670,-0.0012207,0.00424805,
2672,-0.00793457,0.00432739,
2674,0.0140381,0.00446777,
2676,-0.000610352,0.00443115,
2678,-0.00183105,0.00426025,
2680,0.000610352,0.00421143,
2682,0.00305176,0.00419312,
2684,0.00488281,0.00421753,
2686,0.00305176,0.00420532,
2688,-0.00610352,0.00420532,
2690,0.0109863,0.00424805,
2692,0.0109863,0.00435181,
2694,0.00305176,0.00428467,
2696,-0.00915527,0.00432739,
2698,0.00671387,0.00437012,
2700,0.00610352,0.00437622,
2702,0,0.0043335,
2704,-0.0012207,0.00430298,
2706,0.000610352,0.00430908,
2708,0.00305176,0.00429688,
2710,0.00488281,0.00432129,
2712,-0.00366211,0.00435181,
2714,-0.00183105,0.0043335,
2716,0.00366211,0.00437012,
2718,0.00183105,0.0043457,
2720,-0.00183105,0.00436401,
2722,-0.000610352,0.0043335,
2724,-0.00427246,0.00424805,
2726,0.00183105,0.00421143,
2728,-0.00305176,0.00418701,
2730,0.000610352,0.00414429,
2732,0,0.00411987,
2734,-0.00427246,0.00414429,
2736,0.00671387,0.00415649,
2738,0.00366211,0.00415649,
2740,-0.00427246,0.00419922,
2742,0,0.00415649,
2744,0.00305176,0.00408936,
2746,0.00549316,0.00404053,
2748,0.00305176,0.00406494,
2750,0.000610352,0.00404053,
2752,-0.00244141,0.00402832,
2754,0.00854492,0.00410156,
2756,-0.000610352,0.00406494,
2758,0,0.00403442,
2760,-0.000610352,0.00403442,
2762,-0.00488281,0.00406494,
2764,0.00488281,0.00408325,
2766,-0.00183105,0.00407715,
2768,-0.00976563,0.00415039,
2770,0.0012207,0.00413208,
2772,0,0.00405884,
2774,0.00671387,0.00407104,
2776,-0.00610352,0.00401001,
2778,-0.00427246,0.00401611,
2780,0.00610352,0.00407104,
2782,-0.00305176,0.0039978,
2784,0.00427246,0.00403442,
2786,0,0.00386963,
2788,0.000610352,0.00377808,
2790,-0.00366211,0.00371094,
2792,0,0.00350952,
2794,0.0146484,0.00361938,
2796,-0.00732422,0.00368652,
2798,-0.00488281,0.00372925,
2800,0.00366211,0.00372925,
2802,0.000610352,0.00368042,
2804,-0.00488281,0.00370483,
2806,0.0012207,0.00369263,
2808,-0.00488281,0.00370483,
2810,-0.00610352,0.00375977,
2812,0.00183105,0.00377808,
2814,-0.000610352,0.00377197,
2816,0.0012207,0.00375977,
2818,0,0.00368042,
2820,0.00793457,0.00371704,
2822,-0.00366211,0.00375366,
2824,0.0012207,0.00366821,
2826,0.00732422,0.00369873,
2828,0.0012207,0.00369263,
2830,-0.00183105,0.00369263,
2832,0.00427246,0.00371704,
2834,-0.00244141,0.00373535,
2836,0.00549316,0.00373535,
2838,0.0012207,0.00369263,
2840,0,0.00366211,
2842,0.00793457,0.00366821,
2844,0.00488281,0.00369263,
2846,0.00915527,0.00376587,
2848,-0.00610352,0.00374756,
2850,0.00427246,0.00377197,
2852,0.00915527,0.00379028,
2854,-0.00244141,0.00379028,
2856,-0.000610352,0.00374756,
2858,-0.00183105,0.00375977,
2860,0,0.00374756,
2862,0.00610352,0.00380859,
2864,-0.00732422,0.0038208,
2866,-0.00305176,0.0038147,
2868,0.0012207,0.00376587,
2870,0.0012207,0.00376587,
2872,-0.00305176,0.00371704,
2874,0.00244141,0.00360107,
2876,0.00305176,0.00362549,
2878,-0.00671387,0.00367432,
2880,0.00488281,0.00371704,
2882,0.00610352,0.00374756,
2884,-0.00366211,0.00373535,
2886,0.00366211,0.00374146,
2888,-0.000610352,0.00368652,
2890,-0.00183105,0.00359497,
2892,0,0.00348511,
2894,-0.000610352,0.00346069,
2896,-0.00183105,0.00338745,
2898,0,0.00332031,
2900,0.00244141,0.00328369,
2902,0.00244141,0.00330811,
2904,0.00366211,0.00333252,
2906,-0.00610352,0.00338745,
2908,0.00305176,0.00338745,
2910,0.00488281,0.00338745,
2912,-0.0012207,0.00336304,
2914,-0.00244141,0.00336914,
2916,-0.00183105,0.00335083,
2918,0.00366211,0.00336914,
2920,-0.00183105,0.00336914,
2922,-0.00244141,0.00338745,
2924,0.00244141,0.00336914,
2926,-0.00183105,0.00336914,
2928,0.00244141,0.00336304,
2930,0.00183105,0.00337524,
2932,-0.000610352,0.00338135,
2934,-0.00305176,0.00336914,
2936,0,0.003302,
2938,0.00183105,0.00328369,
2940,-0.000610352,0.00324707,
2942,0.00854492,0.00333252,
2944,-0.00488281,0.00335083,
2946,-0.00915527,0.00338745,
2948,-0.000610352,0.00336304,
2950,0.00488281,0.00340576,
2952,0.000610352,0.00338745,
2954,-0.00854492,0.00338745,
2956,-0.00244141,0.00340576,
2958,0.00915527,0.00349731,
2960,0.0128174,0.00361938,
2962,-0.0164795,0.00373535,
2964,0.00183105,0.00370483,
2966,0.00854492,0.00377197,
2968,0,0.00367432,
2970,-0.00427246,0.00370483,
2972,-0.00183105,0.00372314,
2974,-0.00244141,0.00368042,
2976,0.00671387,0.00368652,
2978,-0.00366211,0.00368042,
2980,0.00305176,0.0036499,
2982,0.0012207,0.00363159,
2984,0.00244141,0.00361328,
2986,0.00488281,0.00366211,
2988,-0.000610352,0.00366211,
2990,-0.00183105,0.0036438,
2992,-0.00488281,0.00369263,
2994,0.00366211,0.00358276,
2996,-0.00244141,0.00353394,
2998,0,0.00348511,
3000,0,0.00344849,
3002,0.0012207,0.00345459,
3004,0.00427246,0.00344849,
3006,-0.00305176,0.0034668,
3008,0.0012207,0.00343018,
3010,0.00854492,0.00345459,
3012,-0.00244141,0.00346069,
3014,0,0.00345459,
3016,0.00488281,0.00349121,
3018,-0.000610352,0.00349731,
3020,-0.00183105,0.00343628,
3022,0.00793457,0.003479,
3024,0.000610352,0.0034729,
3026,0.00183105,0.00341797,
3028,0.00244141,0.00343018,
3030,-0.00793457,0.00349121,
3032,0.00305176,0.003479,
3034,0.00427246,0.00349731,
3036,-0.00854492,0.00352783,
3038,0.0012207,0.00352783,
3040,0,0.00352783,
3042,-0.00427246,0.00349121,
3044,0.00915527,0.00353394,
3046,0.0012207,0.00345459,
3048,-0.00427246,0.00343628,
3050,0.00366211,0.00343018,
3052,0.00305176,0.00336914,
3054,-0.00183105,0.00336304,
3056,-0.00732422,0.00343018,
3058,-0.00305176,0.00344238,
3060,-0.00244141,0.0034668,
3062,-0.0012207,0.00341797,
3064,-0.0012207,0.00335693,
3066,-0.00427246,0.00336914,
3068,-0.00244141,0.00338135,
3070,0.00244141,0.00339355,
3072,-0.00366211,0.00339966,
3074,0.000610352,0.00338135,
3076,-0.00427246,0.00339355,
3078,-0.00732422,0.00339966,
3080,0.00366211,0.00338745,
3082,0.00305176,0.00335693,
3084,-0.00427246,0.00336304,
3086,0.00244141,0.00335083,
3088,0.0012207,0.00335693,
3090,-0.00732422,0.00341187,
3092,-0.00427246,0.00345459,
3094,0.00488281,0.00349731,
3096,-0.00244141,0.00350342,
3098,-0.00549316,0.00355835,
3100,-0.00427246,0.00357666,
3102,-0.00244141,0.00357666,
3104,0.00183105,0.00355835,
3106,-0.00549316,0.00355225,
3108,-0.00244141,0.00354614,
3110,0.00549316,0.00355225,
3112,-0.00854492,0.00362549,
3114,-0.00244141,0.00362549,
3116,-0.0012207,0.00361938,
3118,0,0.00358276,
3120,-0.00183105,0.00358276,
3122,-0.00366211,0.00359497,
3124,0.00183105,0.00358887,
3126,0.00549316,0.00362549,
3128,-0.00549316,0.00365601,
3130,-0.0012207,0.0036499,
3132,0.00976563,0.00374146,
3134,0.00366211,0.00374756,
3136,-0.0134277,0.00388184,
3138,0.0195313,0.00405884,
3140,0.00244141,0.00407715,
3142,-0.0146484,0.00413818,
3144,0.00305176,0.00411987,
3146,-0.000610352,0.00403442,
3148,0,0.00402832,
3150,-0.00244141,0.00400391,
3152,-0.00793457,0.00407715,
3154,-0.00488281,0.00404053,
3156,0.0012207,0.00402832,
3158,-0.00549316,0.0039917,
3160,0.000610352,0.00386963,
3162,-0.0012207,0.00371704,
3164,-0.000610352,0.00370483,
3166,0.00244141,0.0036438,
3168,-0.00305176,0.00367432,
3170,-0.00671387,0.00369873,
3172,0.00305176,0.00371094,
3174,0.00183105,0.00370483,
3176,-0.0012207,0.0036499,
3178,-0.00305176,0.0036438,
3180,0.0012207,0.00362549,
3182,0.00244141,0.0036377,
3184,-0.00366211,0.0036499,
3186,0.000610352,0.00360718,
3188,0.00366211,0.0036377,
3190,-0.00183105,0.0036377,
3192,-0.00183105,0.00360718,
3194,0.00549316,0.00362549,
3196,-0.000610352,0.00360718,
3198,0.00305176,0.0036377,
3200,0.00610352,0.00369873,
3202,-0.00366211,0.00372314,
3204,-0.000610352,0.00368652,
3206,0.000610352,0.00366211,
3208,0.00671387,0.00371704,
3210,0,0.00363159,
3212,-0.00610352,0.00366821,
3214,0.00183105,0.00368652,
3216,0.0012207,0.0036499,
3218,0.00244141,0.00366821,
3220,0.00915527,0.00374146,
3222,-0.00854492,0.00374756,
3224,0.00427246,0.00378418,
3226,0.0128174,0.00389404,
3228,-0.00854492,0.00395508,
3230,0.00244141,0.00390015,
3232,0.00183105,0.00388794,
3234,-0.00427246,0.00388794,
3236,0.00366211,0.00383911,
3238,-0.00366211,0.00386353,
3240,-0.00427246,0.00390625,
3242,0.00976563,0.00396118,
3244,0.00671387,0.00393677,
3246,-0.0140381,0.00406494,
3248,0.00244141,0.00404663,
3250,0,0.00401001,
3252,-0.000610352,0.0039856,
3254,-0.00366211,0.00400391,
3256,-0.00671387,0.0039978,
3258,-0.0012207,0.00397949,
3260,0.000610352,0.00396118,
3262,-0.00183105,0.00396729,
3264,0.00244141,0.00397949,
3266,0,0.00393677,
3268,0.00488281,0.00396118,
3270,-0.00183105,0.00395508,
3272,0.00793457,0.0039978,
3274,-0.00183105,0.00401001,
3276,0.0012207,0.00397949,
3278,0.000610352,0.00391235,
3280,0.0012207,0.00388794,
3282,0.000610352,0.00386353,
3284,0.000610352,0.0038269,
3286,0.000610352,0.00380859,
3288,0.00793457,0.00387573,
3290,-0.00183105,0.0038208,
3292,-0.00610352,0.00383911,
3294,0.00549316,0.00384521,
3296,0.00183105,0.00383911,
3298,-0.00854492,0.00386963,
3300,0.00610352,0.00388794,
3302,-0.00366211,0.00390015,
3304,-0.00488281,0.00393066,
3306,0.00244141,0.00390015,
3308,0.00854492,0.00396118,
3310,-0.000610352,0.00391235,
3312,-0.00732422,0.00390015,
3314,0.0128174,0.00400391,
3316,-0.0012207,0.00400391,
3318,-0.000610352,0.00401001,
3320,-0.00244141,0.00401611,
3322,0.00305176,0.00401001,
3324,-0.00610352,0.00405273,
3326,0,0.0039978,
3328,-0.000610352,0.00394897,
3330,-0.00244141,0.00396118,
3332,-0.000610352,0.00386963,
3334,-0.0012207,0.00384521,
3336,0.0115967,0.0038269,
3338,-0.0109863,0.00374146,
3340,0.00427246,0.00375977,
3342,0.00854492,0.00369873,
3344,0.000610352,0.00367432,
3346,-0.00183105,0.00368652,
3348,-0.00671387,0.00375366,
3350,0.00366211,0.00376587,
3352,0.00244141,0.00371094,
3354,-0.00549316,0.00371704,
3356,-0.00244141,0.00372925,
3358,-0.00366211,0.00371094,
3360,-0.00244141,0.00372925,
3362,-0.0012207,0.00372925,
3364,-0.000610352,0.00372925,
3366,-0.00183105,0.00372314,
3368,0,0.00369263,
3370,-0.00305176,0.00365601,
3372,0.00976563,0.00372314,
3374,-0.00488281,0.00375366,
3376,0.00854492,0.0038269,
3378,-0.00549316,0.00385132,
3380,-0.0012207,0.00385132,
3382,0.00244141,0.00385132,
3384,-0.00183105,0.00383301,
3386,0,0.0038269,
3388,0.0012207,0.00380249,
3390,-0.00732422,0.00385742,
3392,-0.00610352,0.00390015,
3394,0.00366211,0.00388184,
3396,0.00183105,0.00389404,
3398,-0.00488281,0.00391235,
3400,0.000610352,0.00385742,
3402,-0.0012207,0.00383301,
3404,0.00183105,0.00384521,
3406,-0.00305176,0.00386963,
3408,-0.00427246,0.00384521,
3410,0.00793457,0.00392456,
3412,-0.000610352,0.00386963,
3414,-0.00183105,0.00386963,
3416,-0.00366211,0.00389404,
3418,0.000610352,0.00387573,
3420,-0.0012207,0.00379639,
3422,0.00366211,0.00374756,
3424,-0.00183105,0.00372314,
3426,-0.00244141,0.00361938,
3428,0.00549316,0.00358887,
3430,-0.00488281,0.00361328,
3432,0.00244141,0.00361938,
3434,-0.00244141,0.00360107,
3436,0,0.00356445,
3438,-0.00305176,0.00355835,
3440,-0.00366211,0.00355225,
3442,0.00732422,0.00352783,
3444,0.0146484,0.00360718,
3446,-0.0158691,0.00362549,
3448,-0.00488281,0.0036499,
3450,0.00915527,0.00374146,
3452,-0.00183105,0.00375366,
3454,-0.00793457,0.00379639,
3456,-0.00244141,0.00375366,
3458,0.0134277,0.00387573,
3460,-0.0164795,0.00403442,
3462,-0.00732422,0.00408936,
3464,0.00915527,0.00415649,
3466,-0.00732422,0.00422974,
3468,0.00488281,0.00422974,
3470,-0.00366211,0.00424805,
3472,-0.0012207,0.00418091,
3474,-0.00488281,0.00421143,
3476,0.00183105,0.00421753,
3478,0.0134277,0.0043457,
3480,-0.0109863,0.00444336,
3482,0.000610352,0.00444336,
3484,0.00732422,0.0045105,
3486,-0.000610352,0.0045105,
3488,-0.00488281,0.00447998,
3490,-0.00305176,0.00449219,
3492,0.00183105,0.00444946,
3494,0.00793457,0.00447388,
3496,-0.00976563,0.00455322,
3498,0.00183105,0.00448608,
3500,0.00549316,0.00447998,
3502,0.00427246,0.00448608,
3504,-0.00305176,0.00446777,
3506,0.00732422,0.0045166,
3508,0.0012207,0.00444336,
3510,0.000610352,0.00444336,
3512,0.00854492,0.00445557,
3514,0.00183105,0.0043457,
3516,-0.00244141,0.00435791,
3518,0.000610352,0.00435791,
3520,0.012207,0.00445557,
3522,0.00671387,0.00449219,
3524,-0.00854492,0.0045166,
3526,0.00183105,0.00453491,
3528,0.00366211,0.00456543,
3530,0.00427246,0.00458374,
3532,0.00244141,0.00460205,
3534,0.0146484,0.00473633,
3536,-0.00305176,0.00465088,
3538,0.0012207,0.00455322,
3540,0.012207,0.00463257,
3542,0.00244141,0.00457153,
3544,-0.00366211,0.00460205,
3546,0.00305176,0.00461426,
3548,0.00732422,0.00462036,
3550,-0.000610352,0.00458984,
3552,-0.00183105,0.00458374,
3554,0.00549316,0.00458374,
3556,0,0.00455933,
3558,0.00671387,0.00458984,
3560,0.00671387,0.00463257,
3562,0.012207,0.00474243,
3564,-0.00427246,0.00477905,
3566,-0.000610352,0.00476685,
3568,0.00671387,0.00483398,
3570,0.00610352,0.0048645,
3572,0.00183105,0.00478516,
3574,-0.000610352,0.00474243,
3576,0.00244141,0.0046814,
3578,0.00183105,0.00464478,
3580,0.00549316,0.0046875,
3582,0.00427246,0.00470581,
3584,0.00305176,0.00471802,
3586,0.00183105,0.00473633,
3588,0.00793457,0.00480347,
3590,0,0.00473022,
3592,0,0.00466919,
3594,0.00427246,0.00467529,
3596,0.00671387,0.00472412,
3598,0.00183105,0.0046936,
3600,0.000610352,0.0046936,
3602,-0.00183105,0.00469971,
3604,0.0189209,0.00487061,
3606,-0.010376,0.00494385,
3608,0.0128174,0.0050293,
3610,-0.00854492,0.0050354,
3612,0.00244141,0.00505371,
3614,0.00183105,0.00505371,
3616,0.00183105,0.0050354,
3618,0.00244141,0.00505371,
3620,-0.00427246,0.00508423,
3622,0,0.00504761,
3624,0,0.0050293,
3626,0.00488281,0.00505371,
3628,-0.00427246,0.0050415,
3630,0.0140381,0.00513306,
3632,0.00366211,0.00514526,
3634,-0.00976563,0.00521851,
3636,0.00671387,0.00528564,
3638,0.00427246,0.00529785,
3640,-0.00305176,0.00529175,
3642,0.00183105,0.00523682,
3644,0,0.00509033,
3646,0.0012207,0.00494385,
3648,-0.000610352,0.00490112,
3650,0.00305176,0.00484009,
3652,-0.00183105,0.00484009,
3654,0.00549316,0.00481567,
3656,0.00366211,0.00482788,
3658,-0.00244141,0.00471802,
3660,0.00305176,0.00458374,
3662,0.00549316,0.00456543,
3664,-0.00610352,0.00453491,
3666,0.00305176,0.00449219,
3668,0.00610352,0.00450439,
3670,0.0012207,0.00447998,
3672,-0.00610352,0.00452881,
3674,0.00366211,0.0045166,
3676,0.00610352,0.00455933,
3678,-0.00244141,0.00444946,
3680,0.000610352,0.0043457,
3682,0.00244141,0.00436401,
3684,-0.00854492,0.00437622,
3686,-0.00244141,0.00439453,
3688,0.00854492,0.00443115,
3690,0,0.00440063,
3692,-0.0164795,0.00454712,
3694,0.00244141,0.00449219,
3696,0.00671387,0.00446167,
3698,-0.00610352,0.00450439,
3700,0,0.00444946,
3702,0.00183105,0.00442505,
3704,-0.00305176,0.00442505,
3706,-0.00488281,0.00440063,
3708,0,0.00438843,
3710,0.0012207,0.00439453,
3712,-0.000610352,0.00431519,
3714,0.00488281,0.0043457,
3716,0.00488281,0.00437012,
3718,0.00671387,0.00443115,
3720,0.000610352,0.00431519,
3722,-0.00183105,0.00426636,
3724,0.00488281,0.00422974,
3726,0.000610352,0.00421753,
3728,0.00244141,0.00420532,
3730,0.0134277,0.00429688,
3732,-0.010376,0.00437622,
3734,0.00244141,0.00425415,
3736,0.00366211,0.00426025,
3738,0.00671387,0.00431519,
3740,-0.00427246,0.00423584,
3742,0.00549316,0.00426636,
3744,0.00976563,0.00432739,
3746,-0.0012207,0.00430908,
3748,0.00427246,0.00427856,
3750,-0.00732422,0.0043457,
3752,-0.0012207,0.0043396,
3754,0.00244141,0.00430908,
3756,-0.00366211,0.0043457,
3758,-0.00610352,0.0043396,
3760,0.0012207,0.00428467,
3762,-0.0152588,0.00431519,
3764,0,0.00427246,
3766,-0.00183105,0.00428467,
3768,0.00305176,0.00424805,
3770,-0.00183105,0.00420532,
3772,0.00793457,0.00426636,
3774,-0.00793457,0.0043396,
3776,0.0012207,0.00432739,
3778,0.00549316,0.00436401,
3780,-0.00732422,0.00438232,
3782,-0.00244141,0.00436401,
3784,-0.00549316,0.00438843,
3786,0.00549316,0.00442505,
3788,-0.010376,0.00444946,
3790,-0.00488281,0.00449829,
3792,0.00427246,0.00454102,
3794,-0.00671387,0.00456543,
3796,-0.00244141,0.00452271,
3798,0.00427246,0.00454712,
3800,-0.00549316,0.00459595,
3802,-0.00244141,0.00460205,
3804,-0.00244141,0.00443726,
3806,-0.000610352,0.0043396,
3808,0,0.00421143,
3810,0.00854492,0.00421143,
3812,-0.00854492,0.00427246,
3814,0,0.00425415,
3816,0.0012207,0.00424805,
3818,0.00305176,0.00425415,
3820,0.00244141,0.00423584,
3822,-0.00305176,0.00426636,
3824,0.00915527,0.00435791,
3826,0.00976563,0.00440674,
3828,-0.00793457,0.00444336,
3830,0.00244141,0.00432739,
3832,0.0115967,0.00440674,
3834,0.000610352,0.00431519,
3836,0.00549316,0.00430298,
3838,-0.0115967,0.00437622,
3840,0,0.0043457,
3842,0.00671387,0.00439453,
3844,-0.00244141,0.00441895,
3846,-0.000610352,0.00441284,
3848,0.00366211,0.00444336,
3850,0.0012207,0.00442505,
3852,-0.00854492,0.00449219,
3854,0.00915527,0.00452881,
3856,0.00488281,0.00454102,
3858,-0.00915527,0.00460815,
3860,0.000610352,0.00458374,
3862,0.00366211,0.00456543,
3864,-0.0012207,0.0045166,
3866,-0.012207,0.00460815,
3868,0.00305176,0.00457764,
3870,0.00671387,0.00463257,
3872,-0.00427246,0.00461426,
3874,0,0.00457764,
3876,0.00183105,0.00453491,
3878,0.00610352,0.00457153,
3880,-0.00305176,0.00459595,
3882,0.00427246,0.00461426,
3884,0.000610352,0.00453491,
3886,0.00488281,0.00455933,
3888,-0.00488281,0.00452271,
3890,-0.00427246,0.00456543,
3892,-0.00244141,0.00442505,
3894,0.00366211,0.00443726,
3896,-0.0115967,0.00448608,
3898,0.000610352,0.00443115,
3900,0.00610352,0.00449219,
3902,-0.00793457,0.00455322,
3904,-0.000610352,0.00452881,
3906,-0.00244141,0.00450439,
3908,-0.0012207,0.0045166,
3910,0.010376,0.00460815,
3912,-0.010376,0.00470581,
3914,0.00305176,0.0046875,
3916,0.0158691,0.00479736,
3918,0,0.00473022,
3920,-0.010376,0.00482788,
3922,0.0152588,0.00496216,
3924,0.020752,0.00512085,
3926,0.00610352,0.00517578,
3928,-0.0134277,0.00528564,
3930,-0.0012207,0.00516357,
3932,-0.00732422,0.00513306,
3934,0.000610352,0.00511475,
3936,-0.00793457,0.00515747,
3938,-0.0140381,0.00523071,
3940,-0.010376,0.00529175,
3942,-0.00793457,0.00531616,
3944,0.00183105,0.00523682,
3946,-0.00915527,0.00531616,
3948,-0.00305176,0.00530396,
3950,0.00732422,0.00530396,
3952,-0.00305176,0.00532227,
3954,-0.000610352,0.00530396,
3956,-0.00244141,0.00529175,
3958,0,0.00523071,
3960,-0.000610352,0.00522461,
3962,0.00183105,0.00509033,
3964,-0.0012207,0.00510254,
3966,0.0012207,0.00509644,
3968,-0.00610352,0.00512695,
3970,0,0.00510864,
3972,0.00488281,0.00507813,
3974,-0.00244141,0.00502319,
3976,-0.00183105,0.0050293,
3978,-0.000610352,0.00498047,
3980,0.00427246,0.00494995,
3982,0.000610352,0.00493164,
3984,0.00549316,0.00493164,
3986,0,0.00487671,
3988,0.00976563,0.00487061,
3990,0,0.00482178,
3992,0.00610352,0.00484009,
3994,0.0012207,0.00478516,
3996,0.000610352,0.00476685,
3998,-0.000610352,0.00473022,
4000,0.00854492,0.00476074,
4002,0.0244141,0.00498047,
4004,-0.0378418,0.00533447,
4006,0.00488281,0.0053772,
4008,0.0195313,0.00557251,
4010,0.0146484,0.00563354,
4012,-0.0201416,0.00574951,
4014,-0.00244141,0.00577393,
4016,0,0.00576172,
4018,-0.00915527,0.00582275,
4020,0.012207,0.00592041,
4022,-0.0109863,0.00599976,
4024,-0.010376,0.00601196,
4026,0.00305176,0.00594482,
4028,0.00305176,0.005896,
4030,0.00793457,0.00595093,
4032,-0.00244141,0.00585938,
4034,0.010376,0.00595703,
4036,0.0109863,0.00601196,
4038,0.0109863,0.00600586,
4040,0.010376,0.00610962,
4042,-0.00427246,0.00608521,
4044,0.00732422,0.00613403,
4046,0.00976563,0.00622559,
4048,-0.00671387,0.0062561,
4050,-0.0146484,0.00639038,
4052,-0.00244141,0.00632935,
4054,-0.00610352,0.00629883,
4056,-0.00732422,0.00632324,
4058,-0.00183105,0.00625,
4060,0.00366211,0.00628052,
4062,0.0012207,0.0062561,
4064,0.0146484,0.00639038,
4066,-0.00366211,0.00630493,
4068,0.00915527,0.00636597,
4070,-0.00976563,0.00639648,
4072,-0.00366211,0.00639038,
4074,0.00549316,0.00644531,
4076,-0.00366211,0.00646362,
4078,-0.00610352,0.00646362,
4080,-0.00610352,0.00649414,
4082,0.00427246,0.00649414,
4084,-0.010376,0.0065918,
4086,0.0134277,0.00667725,
4088,0.0115967,0.00674438,
4090,0.0164795,0.00686646,
4092,0.0238037,0.00708008,
4094,0.012207,0.00716553,
4096,-0.0311279,0.00736084,
4098,0.0286865,0.0076416,
4100,0.00610352,0.0076416,
4102,0.0408936,0.00797119,
4104,0.0402832,0.00836792,
4106,0.0390625,0.00873413,
4108,0.0384521,0.00910645,
4110,-0.0366211,0.0093689,
4112,0.00854492,0.00935059,
4114,0.153198,0.0108521,
4116,-0.0769043,0.0114624,
4118,-0.0610352,0.0120728,
4120,-0.0341797,0.0123108,
4122,-0.123901,0.0133972,
4124,0.043335,0.013623,
4126,0.114136,0.0147034,
4128,0.00366211,0.0146057,
4130,0.045166,0.0150452,
4132,0.0469971,0.0154419,
4134,-0.0134277,0.0155701,
4136,-0.0354004,0.0158447,
4138,0.0415039,0.0161194,
4140,-0.115967,0.0171753,
4142,-0.112915,0.0182251,
4144,-0.0457764,0.0186646,
4146,-0.0115967,0.018689,
4148,-0.0836182,0.0194946,
4150,-0.0366211,0.0197876,
4152,0.0561523,0.0203186,
4154,0.126343,0.0215759,
4156,0.0610352,0.0221619,
4158,0.0476074,0.0226379,
4160,0.0524902,0.0231567,
4162,0.0244141,0.0233826,
4164,-0.0195313,0.0235657,
4166,0.0390625,0.0239441,
4168,0.0292969,0.024176,
4170,-0.00915527,0.0242676,
4172,0.114136,0.0253601,
4174,0.0256348,0.025592,
4176,-0.0616455,0.0261902,
4178,0.129395,0.027478,
4180,-0.0897217,0.0283325,
4182,0.116577,0.0294922,
4184,-0.0292969,0.0297302,
4186,-0.129395,0.0310242,
4188,0.022583,0.0311523,
4190,0.098877,0.0321411,
4192,0.0860596,0.0329407,
4194,-0.165405,0.0345825,
4196,-0.00854492,0.0346619,
4198,0.133667,0.0359924,
4200,0.0415039,0.036322,
4202,0.148926,0.0375671,
4204,-0.0378418,0.0375671,
4206,-0.0109863,0.0376282,
4208,-0.127563,0.0387085,
4210,-0.101318,0.0395752,
4212,0.0518799,0.0398926,
4214,-0.178223,0.0416504,
4216,-0.0585938,0.0422363,
4218,-0.0292969,0.0424377,
4220,-0.164185,0.0439575,
4222,-0.147705,0.0453247,
4224,0.0543213,0.0457642,
4226,0.0378418,0.0461121,
4228,-0.15625,0.047644,
4230,-0.0793457,0.0483582,
4232,-0.00549316,0.0483887,
4234,-0.0860596,0.0491455,
4236,-0.0543213,0.0495789,
4238,-0.0714111,0.0501831,
4240,0.00183105,0.0500977,
4242,0.0109863,0.0501648,
4244,-0.0756836,0.0508484,
4246,0.0585938,0.0513367,
4248,0.0531006,0.0518005,
4250,0.0714111,0.0523682,
4252,0.0500488,0.0528442,
4254,-0.00305176,0.0528137,
4256,-0.0506592,0.0532471,
4258,0.0628662,0.0538574,
4260,0.0469971,0.0542908,
4262,-0.0201416,0.05448,
4264,-0.055542,0.0548889,
4266,0.0933838,0.0557861,
4268,-0.00732422,0.0557678,
4270,-0.0445557,0.0561157,
4272,-0.0250244,0.0563293,
4274,0.0622559,0.056897,
4276,0.0506592,0.0573669,
4278,-0.0390625,0.0576965,
4280,-0.0933838,0.0585693,
4282,0.0897217,0.0594238,
4284,-0.0250244,0.0595703,
4286,-0.03479,0.0597839,
4288,-0.010376,0.0597717,
4290,-0.0109863,0.0597168,
4292,-0.00183105,0.0594971,
4294,-0.0482178,0.0598572,
4296,-0.00183105,0.0595642,
4298,-0.0354004,0.0596313,
4300,-0.0268555,0.0598389,
4302,0.00549316,0.0594849,
4304,0.00793457,0.0591614,
4306,0.0128174,0.0588989,
4308,0.0262451,0.0587769,
4310,-0.0164795,0.0585754,
4312,0.0231934,0.0587219,
4314,0.0982666,0.0581726,
4316,0.012207,0.0575256,
4318,-0.0201416,0.0571167,
4320,0.0250244,0.0570251,
4322,0.055542,0.0563416,
4324,0.0140381,0.0560486,
4326,0.0280762,0.055188,
4328,0.0750732,0.0559021,
4330,0.0317383,0.0557678,
4332,-0.0231934,0.0555298,
4334,0.0787354,0.0561829,
4336,0.0238037,0.0560669,
4338,-0.0610352,0.0562622,
4340,0.010376,0.0552063,
4342,-0.0689697,0.0547668,
4344,0.0323486,0.0546326,
4346,0.0750732,0.0552673,
4348,-0.0665283,0.0550964,
4350,-0.0286865,0.0550171,
4352,-0.0128174,0.0545837,
4354,0.0384521,0.0537048,
4356,0.00976563,0.0531921,
4358,-0.043335,0.0531494,
4360,-0.065918,0.0532837,
4362,-0.0311279,0.0533508,
4364,-0.078125,0.0539368,
4366,-0.0708008,0.0542542,
4368,0.012207,0.0540833,
4370,0.012207,0.0541138,
4372,0.000610352,0.0529785,
4374,-0.00854492,0.0528076,
4376,-0.0585938,0.0527771,
4378,0.0787354,0.0522705,
4380,-0.00793457,0.0514526,
4382,0.0323486,0.0506104,
4384,-0.0177002,0.0504944,
4386,0.0219727,0.0494202,
4388,0.0305176,0.0494995,
4390,-0.0292969,0.0488037,
4392,0.0598145,0.0485413,
4394,0.0170898,0.0470581,
4396,-0.0616455,0.0475891,
4398,-0.032959,0.046582,
4400,0.0476074,0.0466431,
4402,0,0.0451538,
4404,0.00427246,0.0448181,
4406,-0.0219727,0.044928,
4408,-0.0256348,0.0439087,
4410,-0.0115967,0.0430115,
4412,-0.00366211,0.0425293,
4414,0.0524902,0.041272,
4416,0.0842285,0.0415283,
4418,0.00305176,0.0412659,
4420,0.00427246,0.0396667,
4422,-0.0665283,0.038855,
4424,0.0262451,0.0385742,
4426,0.043335,0.0386292,
4428,-0.010376,0.0371704,
4430,-0.0109863,0.0364868,
4432,-0.0720215,0.0371521,
4434,-0.0335693,0.0366272,
4436,0.0158691,0.0362427,
4438,0.012207,0.0356506,
4440,0.0445557,0.0360779,
4442,0.0567627,0.0365356,
4444,-0.0012207,0.035791,
4446,0.00915527,0.0352966,
4448,0.0292969,0.0350586,
4450,0.0012207,0.0343567,
4452,-0.0238037,0.0340942,
4454,-0.0408936,0.0344727,
4456,0.0140381,0.0341064,
4458,-0.0683594,0.0341614,
4460,-0.0317383,0.0340088,
4462,0.0646973,0.0344543,
4464,0.0476074,0.034375,
4466,0.0524902,0.0339661,
4468,0.0482178,0.034375,
4470,0.0415039,0.0343445,
4472,0.0695801,0.03479,
4474,-0.0274658,0.0344421,
4476,0.0158691,0.0340942,
4478,-0.0494385,0.034198,
4480,-0.0793457,0.0340576,
4482,-0.0439453,0.0335999,
4484,-0.0244141,0.0335937,
4486,-0.0469971,0.0337158,
4488,-0.0152588,0.0337646,
4490,0.0164795,0.0338196,
4492,0.00549316,0.0338562,
4494,0.00244141,0.0333984,
4496,-0.00549316,0.0334351,
4498,-0.00305176,0.0331116,
4500,-0.0384521,0.0332275,
4502,0.00671387,0.0332397,
4504,-0.0280762,0.0334412,
4506,0.0231934,0.0335449,
4508,-0.00732422,0.0333557,
4510,-0.0585938,0.0337769,
4512,0.0274658,0.0338196,
4514,0.0402832,0.0332397,
4516,0.00732422,0.0331909,
4518,-0.0170898,0.0331604,
4520,0.00244141,0.0329346,
4522,0.0115967,0.0324951,
4524,0.0299072,0.0326538,
4526,-0.0238037,0.0326111,
4528,0.00244141,0.0318848,
4530,0.0317383,0.0318848,
4532,0.00915527,0.0317444,
4534,0.045166,0.0314087,
4536,-0.0012207,0.0311829,
4538,0.0140381,0.0307129,
4540,0.0311279,0.0309204,
4542,-0.00366211,0.0302673,
4544,-0.00488281,0.0299927,
4546,-0.010376,0.0293457,
4548,-0.0915527,0.0295959,
4550,0.0256348,0.0295654,
4552,-0.0488281,0.0299255,
4554,-0.0469971,0.030011,
4556,0.00610352,0.0299744,
4558,0.0421143,0.0299622,
4560,0.012207,0.029425,
4562,-0.0695801,0.0298096,
4564,-0.00366211,0.0290649,
4566,0.0317383,0.0286743,
4568,0.0335693,0.0288879,
4570,-0.043335,0.0291992,
4572,-0.0744629,0.0299377,
4574,0.0128174,0.0299805,
4576,0.032959,0.0297241,
4578,-0.0549316,0.0294861,
4580,0.0201416,0.0296082,
4582,-0.0128174,0.0294128,
4584,-0.0183105,0.0294189,
4586,0.0592041,0.0297913,
4588,-0.0109863,0.0295959,
4590,-0.010376,0.0294067,
4592,-0.0146484,0.0289551,
4594,0.0372314,0.0291565,
4596,0.0482178,0.0290222,
4598,0.0134277,0.0288269,
4600,-0.00183105,0.0283691,
4602,0.0231934,0.0286011,
4604,0.0567627,0.029126,
4606,-0.0335693,0.0292419,
4608,-0.032959,0.0293152,
4610,-0.0231934,0.0294312,
4612,-0.0299072,0.0296936,
4614,-0.022583,0.0293945,
4616,-0.043335,0.0289856,
4618,-0.0384521,0.0293396,
4620,-0.0158691,0.0294556,
4622,-0.0128174,0.0289185,
4624,0.0140381,0.0287964,
4626,0.0390625,0.0287537,
4628,0.0128174,0.0287781,
4630,-0.0158691,0.0288269,
4632,0.0567627,0.0286743,
4634,0.0927734,0.0292664,
4636,-0.00549316,0.0291626,
4638,-0.0604248,0.0296448,
4640,0.0372314,0.0295715,
4642,0.00976563,0.0291016,
4644,-0.00427246,0.0291321,
4646,-0.0286865,0.0293274,
4648,-0.0115967,0.0291504,
4650,-0.020752,0.0293457,
4652,-0.0189209,0.0292969,
4654,0.0195313,0.0290833,
4656,-0.0250244,0.0291931,
4658,-0.0244141,0.0287537,
4660,0.0317383,0.0287537,
4662,-0.0170898,0.0282776,
4664,-0.0427246,0.0282288,
4666,0.00488281,0.0277527,
4668,-0.0152588,0.0274231,
4670,0.00854492,0.0270935,
4672,0.0396729,0.0267944,
4674,-0.0469971,0.0269897,
4676,-0.0341797,0.0271729,
4678,0.0140381,0.0268188,
4680,0.0311279,0.0263367,
4682,-0.00549316,0.0259521,
4684,0.020752,0.0259155,
4686,-0.0128174,0.0255737,
4688,-0.0152588,0.0255737,
4690,0.0610352,0.0260193,
4692,0,0.0259644,
4694,0.0012207,0.0259521,
4696,0.000610352,0.0259033,
4698,0.00183105,0.0258911,
4700,0.00549316,0.0255615,
4702,0.0195313,0.0256897,
4704,-0.0231934,0.0256409,
4706,-0.00244141,0.0254333,
4708,-0.0408936,0.025769,
4710,0.00854492,0.0252686,
4712,0.0567627,0.0255615,
4714,0.0250244,0.0254089,
4716,0.0317383,0.0256531,
4718,0.0524902,0.0260071,
4720,0.0250244,0.0262329,
4722,-0.0238037,0.026355,
4724,0.00793457,0.0261353,
4726,-0.00854492,0.0259827,
4728,0.0115967,0.0260742,
4730,-0.0866699,0.0266235,
4732,-0.0732422,0.0272644,
4734,-0.0189209,0.027002,
4736,-0.0299072,0.0272888,
4738,0.0128174,0.0272766,
4740,0.0201416,0.0271667,
4742,-0.00305176,0.0271606,
4744,0.0012207,0.027124,
4746,0.0750732,0.027771,
4748,0.0872803,0.0277283,
4750,-0.0695801,0.0281677,
4752,0.0604248,0.0282837,
4754,-0.00671387,0.0278809,
4756,-0.00427246,0.0278625,
4758,-0.00244141,0.0274658,
4760,-0.0274658,0.0276184,
4762,-0.0128174,0.0270508,
4764,-0.0299072,0.0273132,
4766,-0.0567627,0.0275635,
4768,-0.0201416,0.0274292,
4770,0,0.0269958,
4772,0.022583,0.0264771,
4774,-0.00244141,0.0263733,
4776,-0.0244141,0.0262878,
4778,-0.00732422,0.0258118,
4780,-0.0164795,0.0257751,
4782,0.0469971,0.0261169,
4784,-0.00366211,0.0259705,
4786,-0.0140381,0.0255188,
4788,0.00183105,0.0254272,
4790,0.0274658,0.0255981,
4792,0.0183105,0.0256348,
4794,0.00244141,0.0252869,
4796,0.0335693,0.0251404,
4798,0.0244141,0.0252502,
4800,0.0152588,0.0253845,
4802,-0.010376,0.0252563,
4804,0.0549316,0.025238,
4806,-0.0280762,0.0251831,
4808,-0.00976563,0.0249512,
4810,0.00732422,0.0247925,
4812,-0.012207,0.0246155,
4814,-0.00732422,0.0244629,
4816,-0.0158691,0.0241882,
4818,0.0726318,0.02453,
4820,0,0.0243713,
4822,-0.0921631,0.0251648,
4824,0.0292969,0.0253174,
4826,0.03479,0.0252747,
4828,0.0134277,0.0252808,
4830,-0.0219727,0.0253418,
4832,-0.0372314,0.0251465,
4834,-0.0439453,0.0246582,
4836,-0.000610352,0.0246094,
4838,0.0354004,0.0243591,
4840,-0.00305176,0.0240173,
4842,-0.0250244,0.0241699,
4844,-0.012207,0.0242493,
4846,0.0256348,0.0242188,
4848,0.020752,0.0243103,
4850,-0.0457764,0.0245605,
4852,0.0115967,0.0244873,
4854,0.00854492,0.0243774,
4856,0.0244141,0.0243713,
4858,0.00671387,0.0241943,
4860,-0.00854492,0.0239624,
4862,0.0250244,0.0240417,
4864,0.0213623,0.0238281,
4866,-0.00610352,0.0238403,
4868,-0.00793457,0.0237671,
4870,0.0140381,0.023822,
4872,0.0305176,0.0237305,
4874,0.00244141,0.0232849,
4876,-0.0354004,0.0232971,
4878,-0.0158691,0.0233154,
4880,0.0177002,0.0231812,
4882,0.0189209,0.0233154,
4884,-0.00305176,0.0231384,
4886,0.00793457,0.0230896,
4888,-0.0408936,0.0233459,
4890,0.0195313,0.0229309,
4892,0.0463867,0.0233948,
4894,-0.0305176,0.0236877,
4896,-0.03479,0.0240295,
4898,-0.00854492,0.0240967,
4900,-0.0494385,0.0245361,
4902,0.000610352,0.0243469,
4904,0.0469971,0.024585,
4906,0.0317383,0.0248779,
4908,-0.0372314,0.0248413,
4910,-0.0262451,0.0250183,
4912,0.00671387,0.0245178,
4914,0.0860596,0.0251282,
4916,-0.0335693,0.0251465,
4918,-0.0390625,0.0250122,
4920,-0.020752,0.0249695,
4922,-0.0396729,0.0251282,
4924,0.0189209,0.025238,
4926,0.043335,0.0255859,
4928,-0.0164795,0.0256348,
4930,-0.0360107,0.0251282,
4932,0.0195313,0.0245911,
4934,0.0457764,0.0248596,
4936,0.00244141,0.024585,
4938,0.00610352,0.0245178,
4940,-0.0140381,0.0244568,
4942,-0.0231934,0.0246582,
4944,0.0195313,0.0248413,
4946,-0.012207,0.0242126,
4948,0.0164795,0.0235046,
4950,-0.00305176,0.0228394,
4952,-0.0354004,0.0225891,
4954,-0.00549316,0.0225769,
4956,0.03479,0.0228821,
4958,0.0244141,0.0231018,
4960,0.0402832,0.02323,
4962,0.00854492,0.0231873,
4964,0.010376,0.0229919,
4966,-0.000610352,0.0224304,
4968,0.0201416,0.0224304,
4970,-0.00183105,0.0224487,
4972,-0.00305176,0.0222534,
4974,0.0524902,0.0227539,
4976,-0.0268555,0.0227783,
4978,-0.0317383,0.0230225,
4980,0.0592041,0.0234497,
4982,0.0292969,0.0232727,
4984,-0.0341797,0.0235779,
4986,0.00366211,0.0234741,
4988,0.00549316,0.0235107,
4990,0.00183105,0.0232544,
4992,0.00549316,0.0231262,
4994,0.0274658,0.0233765,
4996,-0.0445557,0.0234863,
4998,0.0238037,0.0234802,
5000,0.0128174,0.0234558,
5002,-0.0134277,0.0234863,
5004,-0.0219727,0.0231567,
5006,-0.0238037,0.023114,
5008,0.0170898,0.0231873,
5010,-0.0378418,0.0234924,
5012,-0.010376,0.0234741,
5014,-0.010376,0.0235046,
5016,0.0335693,0.0236816,
5018,0.0341797,0.0232971,
5020,-0.0335693,0.0236328,
5022,0.0140381,0.0228516,
5024,0.012207,0.0226807,
5026,-0.0012207,0.022345,
5028,0.0146484,0.0223572,
5030,0.0012207,0.0221497,
5032,0.0134277,0.0219116,
5034,0.0323486,0.0217957,
5036,0.0140381,0.0219299,
5038,-0.0109863,0.0216858,
5040,0.0817871,0.0224731,
5042,0.00305176,0.0222534,
5044,0.0286865,0.0224182,
5046,-0.00610352,0.0222229,
5048,-0.00549316,0.0220703,
5050,-0.0524902,0.0221375,
5052,0.00671387,0.0220886,
5054,-0.0177002,0.0221802,
5056,-0.00427246,0.0219788,
5058,-0.0146484,0.0220581,
5060,-0.0128174,0.0221008,
5062,-0.00854492,0.021936,
5064,0.00488281,0.0217712,
5066,0.00793457,0.0217896,
5068,0.0561523,0.0222717,
5070,0.0500488,0.0226318,
5072,0.0177002,0.0225037,
5074,0.00244141,0.0225037,
5076,0.0012207,0.0221619,
5078,0.0445557,0.0224487,
5080,-0.0115967,0.0223877,
5082,-0.0311279,0.0225098,
5084,-0.0177002,0.0226562,
5086,-0.0299072,0.022876,
5088,0.0115967,0.022583,
5090,-0.00549316,0.0224426,
5092,0.0518799,0.0224976,
5094,-0.0311279,0.0225037,
5096,0.00183105,0.0221741,
5098,-0.0268555,0.0223572,
5100,0.0274658,0.0221375,
5102,-0.0299072,0.0224304,
5104,0.0158691,0.0221191,
5106,0.00549316,0.0218567,
5108,-0.043335,0.0219177,
5110,0,0.0216553,
5112,0.0305176,0.0218933,
5114,0.0653076,0.0216858,
5116,0.0372314,0.0217224,
5118,-0.0506592,0.0218384,
5120,0.00488281,0.0216797,
5122,0.0457764,0.0217407,
5124,-0.012207,0.0216736,
5126,0.0268555,0.0215088,
5128,-0.0109863,0.0214539,
5130,-0.00183105,0.0211121,
5132,-0.0280762,0.0211975,
5134,0.0256348,0.0209961,
5136,0.0195313,0.021167,
5138,0.00549316,0.0211609,
5140,0.00488281,0.0210693,
5142,-0.0732422,0.0215698,
5144,0.00671387,0.0214417,
5146,-0.00244141,0.021344,
5148,0.00793457,0.0212585,
5150,-0.0445557,0.0216736,
5152,-0.0164795,0.0214844,
5154,0.00366211,0.0214661,
5156,0.0146484,0.0212646,
5158,0.0115967,0.0211365,
5160,-0.00732422,0.0208069,
5162,-0.0109863,0.0208313,
5164,0.0402832,0.0211304,
5166,0.012207,0.0212463,
5168,-0.0543213,0.0215881,
5170,0.0238037,0.0218079,
5172,-0.0140381,0.0219177,
5174,-0.0274658,0.0216675,
5176,0.0164795,0.0215637,
5178,0.00244141,0.0212708,
5180,0.0372314,0.021051,
5182,0.0262451,0.0210205,
5184,0.0671387,0.0213501,
5186,-0.0164795,0.0214783,
5188,-0.0335693,0.021759,
5190,-0.0311279,0.022052,
5192,0.0933838,0.0229309,
5194,-0.043335,0.0230896,
5196,-0.0427246,0.0230713,
5198,-0.0439453,0.0232727,
5200,-0.0158691,0.0233032,
5202,0.0366211,0.0235352,
5204,0.0427246,0.0237427,
5206,0.012207,0.0236267,
5208,-0.0653076,0.0241089,
5210,0.0317383,0.0240479,
5212,0.0427246,0.0243713,
5214,-0.0280762,0.0245483,
5216,-0.0286865,0.0244995,
5218,-0.0170898,0.0243286,
5220,-0.012207,0.024115,
5222,-0.00854492,0.0240601,
5224,0.00610352,0.023999,
5226,0.00549316,0.0240417,
5228,-0.00732422,0.0239685,
5230,0.0286865,0.0242432,
5232,-0.0146484,0.0242554,
5234,-0.032959,0.0242615,
5236,0.0494385,0.0246155,
5238,-0.00183105,0.0245239,
5240,-0.0256348,0.0239624,
5242,0.0152588,0.0240845,
5244,0.00244141,0.023822,
5246,-0.0146484,0.0239075,
5248,0.0256348,0.0241089,
5250,-0.00488281,0.0236328,
5252,-0.0195313,0.023761,
5254,0.00305176,0.0236145,
5256,0.00671387,0.0236389,
5258,-0.00427246,0.0235352,
5260,0.000610352,0.0234131,
5262,0.0268555,0.0235962,
5264,-0.00915527,0.0236389,
5266,-0.00549316,0.0236145,
5268,0.00488281,0.0231018,
5270,0.0256348,0.0228577,
5272,-0.0177002,0.0228577,
5274,-0.000610352,0.0228394,
5276,0.0256348,0.0230835,
5278,0.00366211,0.0226746,
5280,-0.0238037,0.0227966,
5282,-0.0195313,0.0226807,
5284,0.0219727,0.0227234,
5286,0.00915527,0.0225159,
5288,-0.0213623,0.0226135,
5290,-0.010376,0.0226624,
5292,0.0170898,0.0223145,
5294,-0.0280762,0.0222839,
5296,0.0152588,0.0224182,
5298,0.0366211,0.0225159,
5300,-0.0292969,0.0225342,
5302,0.0549316,0.0227844,
5304,0.00671387,0.0226929,
5306,-0.0292969,0.0229309,
5308,-0.00549316,0.0225525,
5310,-0.0012207,0.0225647,
5312,-0.0170898,0.0224304,
5314,-0.0262451,0.0220398,
5316,-0.0335693,0.0220032,
5318,-0.00366211,0.0215332,
5320,-0.00305176,0.0215149,
5322,0.0158691,0.0212158,
5324,0.0280762,0.0213745,
5326,-0.022583,0.0213318,
5328,0.0262451,0.0214844,
5330,0.0506592,0.0219727,
5332,0,0.0216919,
5334,-0.0128174,0.0215637,
5336,-0.000610352,0.0213745,
5338,-0.0299072,0.0216187,
5340,0.0152588,0.0217224,
5342,-0.0183105,0.0211731,
5344,-0.0341797,0.0214478,
5346,-0.0250244,0.0216736,
5348,0.0177002,0.0217712,
5350,0.00549316,0.0213806,
5352,-0.0140381,0.0213562,
5354,0.00976563,0.0214172,
5356,0.0354004,0.0216248,
5358,-0.0244141,0.0217529,
5360,0.00549316,0.0217346,
5362,-0.00854492,0.0217102,
5364,-0.00366211,0.021344,
5366,0.0378418,0.0216003,
5368,0.012207,0.0211792,
5370,0.0622559,0.0215637,
5372,-0.0531006,0.0219543,
5374,-0.0317383,0.0219971,
5376,0.0714111,0.0225464,
5378,0.000610352,0.0225281,
5380,-0.0262451,0.0224182,
5382,-0.0714111,0.0228699,
5384,-0.0195313,0.0223938,
5386,-0.00305176,0.0222595,
5388,-0.0152588,0.0220764,
5390,0.00671387,0.0218323,
5392,0,0.0208984,
5394,-0.00488281,0.0205139,
5396,0.00183105,0.020105,
5398,-0.00976563,0.0197632,
5400,0.0531006,0.0201355,
5402,-0.0244141,0.0200134,
5404,-0.0250244,0.0198364,
5406,-0.00366211,0.019751,
5408,0.022583,0.0193237,
5410,0.0170898,0.0191772,
5412,-0.00488281,0.0187988,
5414,0.0354004,0.0188721,
5416,0.00732422,0.0186584,
5418,0.0427246,0.0189148,
5420,-0.0323486,0.0191162,
5422,0.022583,0.0192566,
5424,-0.020752,0.0194031,
5426,0.00183105,0.0193665,
5428,0.012207,0.0194153,
5430,-0.00610352,0.0191895,
5432,-0.0543213,0.0195862,
5434,-0.00610352,0.0193176,
5436,0.00671387,0.0188904,
5438,-0.0421143,0.0192932,
5440,0.00244141,0.0190613,
5442,0.012207,0.0190308,
5444,0.0158691,0.019165,
5446,0.0195313,0.0192139,
5448,0.0311279,0.0192688,
5450,0.0256348,0.0194763,
5452,-0.0476074,0.0197571,
5454,0.0012207,0.0197388,
5456,0.0286865,0.0199585,
5458,-0.0158691,0.0200745,
5460,-0.0579834,0.0206482,
5462,-0.0378418,0.0207581,
5464,-0.00976563,0.0207642,
5466,0.00366211,0.0207458,
5468,-0.00366211,0.0207336,
5470,-0.00854492,0.0205627,
5472,0.0152588,0.0205383,
5474,0.0408936,0.0209412,
5476,0.0146484,0.0208313,
5478,-0.032959,0.0211243,
5480,-0.00366211,0.0209229,
5482,0.0354004,0.0210815,
5484,0.0372314,0.0212341,
5486,0.0427246,0.0215698,
5488,0.032959,0.0216858,
5490,-0.057373,0.0221558,
5492,0.00610352,0.0220459,
5494,0.0134277,0.0218994,
5496,-0.0177002,0.0219238,
5498,-0.00915527,0.0216492,
5500,-0.0390625,0.0217468,
5502,-0.0360107,0.0215576,
5504,0.0213623,0.0217041,
5506,0,0.0214111,
5508,0.0482178,0.0218384,
5510,0.0689697,0.0225159,
5512,0.0274658,0.0226196,
5514,0.0500488,0.0228577,
5516,0.0012207,0.0225342,
5518,0.0189209,0.0226868,
5520,-0.032959,0.0229858,
5522,-0.0219727,0.0230469,
5524,0,0.0227661,
5526,-0.0421143,0.0229614,
5528,-0.0531006,0.02323,
5530,-0.00610352,0.0227844,
5532,-0.0244141,0.0230286,
5534,-0.0256348,0.0231567,
5536,0.0012207,0.0231628,
5538,0.000610352,0.0228699,
5540,-0.00915527,0.0228088,
5542,0.00915527,0.0227173,
5544,-0.0231934,0.0226074,
5546,-0.0250244,0.0226074,
5548,0.00915527,0.022522,
5550,0.0158691,0.0226257,
5552,-0.00244141,0.0225098,
5554,0.00305176,0.0224426,
5556,0.010376,0.0221924,
5558,0.022583,0.0221741,
5560,0.0286865,0.022406,
5562,-0.0195313,0.0225159,
5564,0.0494385,0.0229736,
5566,0.0469971,0.0230652,
5568,0.000610352,0.0229492,
5570,0.000610352,0.0223328,
5572,0.0250244,0.022052,
5574,0.0177002,0.0219116,
5576,-0.0177002,0.0213745,
5578,-0.0323486,0.0216919,
5580,-0.0177002,0.0216064,
5582,0.0286865,0.0211792,
5584,-0.0506592,0.0214905,
5586,-0.0170898,0.0216309,
5588,0.0140381,0.0216187,
5590,-0.0170898,0.0217224,
5592,-0.012207,0.0218445,
5594,0.0170898,0.0219666,
5596,-0.0109863,0.0220581,
5598,0.0164795,0.0221252,
5600,0.00732422,0.0216675,
5602,-0.0238037,0.0216614,
5604,0.0238037,0.0216492,
5606,0.0854492,0.022467,
5608,-0.0152588,0.0223938,
5610,0.00854492,0.0223083,
5612,0.0146484,0.022406,
5614,-0.0201416,0.0222534,
5616,-0.0158691,0.0223389,
5618,-0.0231934,0.0221436,
5620,-0.0213623,0.0220337,
5622,-0.0427246,0.0222351,
5624,-0.0262451,0.02229,
5626,-0.0213623,0.0224854,
5628,-0.00793457,0.0224426,
5630,0.0256348,0.0226379,
5632,0.0579834,0.0226746,
5634,0.0170898,0.0227844,
5636,-0.0634766,0.0233521,
5638,0.0683594,0.0236145,
5640,0.0195313,0.0237854,
5642,-0.020752,0.0238708,
5644,-0.0238037,0.0239502,
5646,-0.0219727,0.0239746,
5648,-0.0164795,0.0238281,
5650,0.0201416,0.0237732,
5652,-0.0378418,0.0236755,
5654,0.00549316,0.0237183,
5656,0.0128174,0.0235596,
5658,-0.0183105,0.023584,
5660,0.0213623,0.0232178,
5662,0.0238037,0.0230774,
5664,0.0518799,0.0234985,
5666,0.00610352,0.0235229,
5668,0.00183105,0.0235046,
5670,-0.00732422,0.0234924,
5672,0.0866699,0.0242065,
5674,-0.0256348,0.024054,
5676,-0.0305176,0.0242126,
5678,-0.0183105,0.0240662,
5680,0.0189209,0.0242188,
5682,-0.0396729,0.0242615,
5684,-0.0250244,0.0241394,
5686,-0.0012207,0.0237244,
5688,-0.012207,0.0235168,
5690,-0.0109863,0.023053,
5692,-0.0262451,0.0232544,
5694,0.0164795,0.0232849,
5696,0.00305176,0.0231384,
5698,-0.010376,0.0231506,
5700,-0.00976563,0.0228577,
5702,0.00427246,0.0225403,
5704,0.0250244,0.0225769,
5706,0.0134277,0.0227112,
5708,-0.0311279,0.0225403,
5710,-0.00854492,0.021936,
5712,0.00610352,0.0217224,
5714,0.045166,0.0216736,
5716,-0.0189209,0.0218506,
5718,-0.00976563,0.021759,
5720,-0.0164795,0.0215942,
5722,0.012207,0.0214966,
5724,0.0189209,0.0216858,
5726,0.0177002,0.0214417,
5728,-0.0195313,0.021106,
5730,-0.0256348,0.0213013,
5732,0.00671387,0.0211243,
5734,0.0384521,0.0212524,
5736,0.0488281,0.0217285,
5738,0.0415039,0.0221375,
5740,0.0305176,0.0223511,
5742,-0.0360107,0.0226196,
5744,0.0189209,0.0225769,
5746,-0.00183105,0.022345,
5748,0.00549316,0.0223083,
5750,-0.0292969,0.0224426,
5752,-0.0524902,0.0229431,
5754,-0.0427246,0.0233398,
5756,-0.0445557,0.0236816,
5758,-0.00610352,0.0235168,
5760,-0.00305176,0.0232605,
5762,0.00427246,0.0231079,
5764,0.00366211,0.0226501,
5766,0,0.0221802,
5768,0.00793457,0.0222534,
5770,0.0585938,0.0228333,
5772,0.00549316,0.0226379,
5774,-0.032959,0.0227905,
5776,0.00915527,0.0227051,
5778,0.0177002,0.0225586,
5780,0.0244141,0.0226257,
5782,-0.0445557,0.0227844,
5784,-0.0189209,0.022467,
5786,0.0109863,0.022406,
5788,-0.000610352,0.0222717,
5790,0.00610352,0.0221619,
5792,0.0244141,0.0222839,
5794,0.00793457,0.0221924,
5796,0.103149,0.023114,
5798,0.0921631,0.0238708,
5800,-0.0170898,0.0239685,
5802,-0.0311279,0.0240417,
5804,0.0195313,0.023999,
5806,0.00366211,0.0231812,
5808,-0.0195313,0.0232239,
5810,-0.0531006,0.0236694,
5812,-0.0604248,0.0241272,
5814,-0.0360107,0.0242859,
5816,-0.0244141,0.0243713,
5818,-0.00427246,0.0241821,
5820,0.0421143,0.0243896,
5822,0.0262451,0.0242249,
5824,0.00549316,0.0240173,
5826,0.0109863,0.0239136,
5828,0.0177002,0.0240112,
5830,0.0231934,0.0239868,
5832,-0.0494385,0.0239014,
5834,-0.022583,0.0239563,
5836,-0.0109863,0.0234314,
5838,-0.0231934,0.0229797,
5840,-0.0158691,0.0229431,
5842,-0.0146484,0.0228821,
5844,-0.0213623,0.0228577,
5846,0.0158691,0.0227966,
5848,-0.00488281,0.0226807,
5850,0.0164795,0.022644,
5852,0.0128174,0.0223938,
5854,-0.00854492,0.0224243,
5856,0.00366211,0.0223328,
5858,0.0183105,0.0223328,
5860,0.0238037,0.0223572,
5862,0.000610352,0.0221252,
5864,-0.022583,0.0218323,
5866,0.00915527,0.0218628,
5868,0.0183105,0.0220276,
5870,-0.00488281,0.0220032,
5872,0.00915527,0.021228,
5874,0.0152588,0.0211243,
5876,-0.0335693,0.0211548,
5878,-0.00854492,0.0210571,
5880,0.0311279,0.0211792,
5882,-0.0109863,0.0208923,
5884,-0.0244141,0.0208862,
5886,0.0115967,0.02099,
5888,0.00488281,0.0209167,
5890,0.00488281,0.0208557,
5892,-0.020752,0.0208008,
5894,0.00427246,0.0206787,
5896,0.00549316,0.0207031,
5898,0.00488281,0.0206482,
5900,0.00488281,0.0205994,
5902,-0.0164795,0.0207214,
5904,-0.010376,0.020575,
5906,0.0012207,0.0204529,
5908,0.00915527,0.0202332,
5910,-0.00915527,0.0202393,
5912,0.0268555,0.0204468,
5914,0.00305176,0.0200256,
5916,0,0.0198364,
5918,0.00854492,0.0198242,
5920,0.0256348,0.0199158,
5922,0.00488281,0.0198425,
5924,0.00610352,0.0197144,
5926,-0.00366211,0.019574,
5928,-0.00488281,0.0194275,
5930,0.0115967,0.0192871,
5932,-0.0134277,0.0193542,
5934,-0.0115967,0.0190857,
5936,0.00244141,0.0186218,
5938,-0.00549316,0.0182617,
5940,-0.00488281,0.0180054,
5942,0.00854492,0.0177307,
5944,-0.00305176,0.017572,
5946,0.0146484,0.0177002,
5948,0.0317383,0.0179626,
5950,0.0476074,0.0181458,
5952,-0.0408936,0.0180298,
5954,-0.010376,0.0177063,
5956,0.0695801,0.0179565,
5958,0.0152588,0.0180481,
5960,0.0244141,0.0182617,
5962,-0.0274658,0.0184937,
5964,-0.00366211,0.0184937,
5966,0.0238037,0.0187317,
5968,0.0128174,0.0187805,
5970,-0.0195313,0.0183899,
5972,-0.0115967,0.0184509,
5974,-0.010376,0.0182251,
5976,0.0012207,0.0181458,
5978,-0.0189209,0.018158,
5980,-0.0177002,0.0180908,
5982,-0.0012207,0.0176575,
5984,-0.00427246,0.017511,
5986,-0.00854492,0.0174866,
5988,0.00183105,0.0174988,
5990,0.00549316,0.0174927,
5992,0.00610352,0.0173096,
5994,0.0158691,0.0173889,
5996,0.0109863,0.0164673,
5998,0.00610352,0.0156067,
6000,0.00976563,0.0155334,
6002,0.00732422,0.0152954,
6004,0.00915527,0.0151917,
6006,0.0164795,0.0153198,
6008,0.010376,0.0152283,
6010,-0.00427246,0.01474,
6012,-0.0164795,0.0143005,
6014,0.00244141,0.0139648,
6016,0.0372314,0.014093,
6018,0.0164795,0.0142151,
6020,-0.0268555,0.0140625,
6022,0.0238037,0.0140381,
6024,0.00793457,0.0140625,
6026,0.00671387,0.0140198,
6028,0.0360107,0.0142029,
6030,0.00366211,0.0140076,
6032,-0.022583,0.013739,
6034,-0.0201416,0.0137146,
6036,-0.0384521,0.0139893,
6038,0.00305176,0.0137878,
6040,-0.0244141,0.0138733,
6042,-0.010376,0.0138306,
6044,0.00793457,0.0136963,
6046,0.00610352,0.0135986,
6048,-0.0213623,0.0137634,
6050,0.00793457,0.013678,
6052,0.0170898,0.0137207,
6054,0.0238037,0.0138733,
6056,-0.010376,0.0139404,
6058,-0.0305176,0.0140625,
6060,-0.0280762,0.0141052,
6062,-0.00366211,0.0141357,
6064,0.0250244,0.0141602,
6066,-0.0158691,0.0142273,
6068,0.0567627,0.0146118,
6070,0,0.014563,
6072,-0.0335693,0.0148071,
6074,0.0231934,0.0148865,
6076,0.00610352,0.0146118,
6078,-0.0396729,0.0149231,
6080,-0.0183105,0.0147949,
6082,-0.0292969,0.014978,
6084,-0.0244141,0.014978,
6086,0,0.0148621,
6088,-0.0140381,0.0149536,
6090,0.00183105,0.0149231,
6092,0.0244141,0.0149597,
6094,0.0274658,0.0151917,
6096,0.00488281,0.0151855,
6098,-0.0177002,0.0153137,
6100,0.0213623,0.0154785,
6102,0.00854492,0.0153992,
6104,-0.0189209,0.0154846,
6106,-0.0115967,0.0155884,
6108,-0.0201416,0.0156982,
6110,-0.0152588,0.0157593,
6112,-0.0128174,0.0156189,
6114,0.00427246,0.0156311,
6116,-0.00610352,0.0156921,
6118,0.00854492,0.0156921,
6120,0.012207,0.0155579,
6122,0.0128174,0.0156372,
6124,0.00976563,0.0156738,
6126,-0.00671387,0.0157043,
6128,-0.00976563,0.0157532,
6130,0.00610352,0.0156982,
6132,0.00244141,0.0155884,
6134,0.0274658,0.0157471,
6136,-0.0219727,0.0159424,
6138,-0.0201416,0.0160889,
6140,0.0238037,0.0162781,
6142,0.00366211,0.0162292,
6144,-0.00183105,0.016217,
6146,0.00305176,0.0161011,
6148,-0.00610352,0.0158447,
6150,-0.00976563,0.0154663,
6152,-0.00854492,0.0151428,
6154,-0.0140381,0.0151794,
6156,-0.00549316,0.0145386,
6158,0.00366211,0.0144226,
6160,0.0146484,0.014325,
6162,-0.0231934,0.0142822,
6164,-0.00854492,0.0143311,
6166,0.00915527,0.0141846,
6168,0.0177002,0.0142334,
6170,-0.0152588,0.0141907,
6172,0.00915527,0.0141663,
6174,-0.00732422,0.0141357,
6176,0.000610352,0.0141296,
6178,-0.0012207,0.0139526,
6180,-0.00976563,0.0138733,
6182,-0.000610352,0.0138672,
6184,-0.0170898,0.0139954,
6186,0.00183105,0.0139282,
6188,0.00305176,0.0139404,
6190,0.00427246,0.0139282,
6192,0.00793457,0.0139465,
6194,-0.00427246,0.0138306,
6196,0.010376,0.0138245,
6198,0.00610352,0.0138245,
6200,0.00427246,0.0137695,
6202,0.000610352,0.0137024,
6204,0.00488281,0.0136597,
6206,0.00183105,0.0135132,
6208,-0.00976563,0.0135071,
6210,0.00732422,0.0135376,
6212,0.0128174,0.013501,
6214,0.00549316,0.0135315,
6216,-0.0140381,0.0132996,
6218,-0.0146484,0.0132813,
6220,0.00793457,0.013092,
6222,-0.0183105,0.0130371,
6224,-0.0109863,0.0130676,
6226,-0.00793457,0.0130798,
6228,-0.0170898,0.0128906,
6230,-0.0140381,0.0129944,
6232,-0.0012207,0.0127808,
6234,-0.00610352,0.0126404,
6236,-0.00915527,0.0123474,
6238,0.00427246,0.0123596,
6240,0.00915527,0.012207,
6242,0.00915527,0.0121948,
6244,-0.012207,0.0122375,
6246,-0.0134277,0.0123108,
6248,0.00366211,0.0121338,
6250,0.000610352,0.0120605,
6252,-0.00305176,0.0119202,
6254,-0.0134277,0.0118164,
6256,0.0012207,0.0117249,
6258,-0.00793457,0.011499,
6260,-0.00183105,0.0112366,
6262,0.000610352,0.0112061,
6264,0.0280762,0.0112366,
6266,-0.000610352,0.011084,
6268,-0.00915527,0.0106079,
6270,0.00915527,0.0106995,
6272,0.00732422,0.010437,
6274,0.0012207,0.0102173,
6276,-0.00854492,0.0102417,
6278,-0.00305176,0.00987549,
6280,-0.00366211,0.009729,
6282,-0.00366211,0.00947266,
6284,-0.00427246,0.00927124,
6286,-0.00488281,0.00932007,
6288,0.00305176,0.00921021,
6290,-0.000610352,0.009198,
6292,0,0.00895386,
6294,-0.00305176,0.00870972,
6296,0.00427246,0.00870361,
6298,0.00183105,0.00854492,
6300,0.00732422,0.00840454,
6302,0.00671387,0.00838623,
6304,-0.00549316,0.00825195,
6306,-0.00732422,0.00820923,
6308,0.00976563,0.00810547,
6310,0.00549316,0.00800781,
6312,-0.0012207,0.00789185,
6314,0.00732422,0.00792236,
6316,-0.0219727,0.00808105,
6318,0.00732422,0.00806885,
6320,0.012207,0.00806885,
6322,-0.00549316,0.00799561,
6324,0.0152588,0.00805054,
6326,-0.00488281,0.00803223,
6328,-0.0177002,0.00811157,
6330,0.0109863,0.0081604,
6332,0.00549316,0.00819092,
6334,-0.00366211,0.00795288,
6336,-0.010376,0.00783691,
6338,-0.00732422,0.00770874,
6340,-0.00183105,0.00748901,
6342,0,0.00745239,
6344,-0.0115967,0.00755005,
6346,0.012207,0.0076416,
6348,-0.00183105,0.00759888,
6350,-0.00183105,0.00751953,
6352,0.00244141,0.0074585,
6354,-0.00549316,0.00737305,
6356,0,0.00731812,
6358,-0.00244141,0.00730591,
6360,0.000610352,0.00716553,
6362,-0.0012207,0.0069458,
6364,-0.000610352,0.00686646,
6366,-0.00183105,0.00679321,
6368,0,0.00661621,
6370,-0.00488281,0.00651245,
6372,0.00671387,0.00648804,
6374,0.00183105,0.00643311,
6376,0.00183105,0.00644531,
6378,0.0012207,0.00644531,
6380,0.00183105,0.00636597,
6382,0.00427246,0.00640259,
6384,-0.0012207,0.0062439,
6386,0.00854492,0.00631104,
6388,0.00488281,0.00632935,
6390,-0.00305176,0.00631714,
6392,0.00244141,0.00626221,
6394,0.0012207,0.00623169,
6396,0.00427246,0.00617065,
6398,0.000610352,0.00611572,
6400,0.000610352,0.0060791,
6402,-0.0012207,0.00608521,
6404,0.00305176,0.00606689,
6406,0.0109863,0.00615845,
6408,0.00854492,0.00614624,
6410,-0.0170898,0.0062439,
6412,0.00732422,0.00618896,
6414,0.00976563,0.00623169,
6416,-0.00854492,0.00617676,
6418,0.010376,0.00613403,
6420,-0.00671387,0.00612183,
6422,-0.00366211,0.00597534,
6424,0.0012207,0.00587769,
6426,0.00305176,0.00582886,
6428,0.0012207,0.00567017,
6430,0,0.00552979,
6432,0.00732422,0.00559082,
6434,0.0012207,0.00554199,
6436,0.00793457,0.00552979,
6438,0.00305176,0.00551758,
6440,0.00244141,0.00545044,
6442,0.00427246,0.00540161,
6444,-0.00366211,0.00531616,
6446,-0.00305176,0.0052124,
6448,0.0109863,0.00528564,
6450,-0.0115967,0.00539551,
6452,-0.00244141,0.0053894,
6454,-0.00549316,0.00531006,
6456,0.00671387,0.00536499,
6458,-0.00427246,0.00532837,
6460,0.000610352,0.00531616,
6462,0.010376,0.00541382,
6464,0.00305176,0.00516357,
6466,-0.00366211,0.00519409,
6468,-0.012207,0.00522461,
6470,0.00671387,0.0052002,
6472,0,0.00512695,
6474,-0.00427246,0.00515747,
6476,-0.0115967,0.00518799,
6478,-0.00610352,0.00521851,
6480,-0.00549316,0.00523682,
6482,-0.0012207,0.0052124,
6484,-0.00549316,0.00522461,
6486,0.00915527,0.00526733,
6488,0,0.00523682,
6490,0.00244141,0.00525513,
6492,0.000610352,0.00526123,
6494,0.00610352,0.00529175,
6496,-0.00244141,0.00527344,
6498,0.0012207,0.00526733,
6500,0.00244141,0.00521851,
6502,0,0.00515137,
6504,0,0.00509644,
6506,-0.00671387,0.00509033,
6508,-0.00305176,0.00502319,
6510,0.0012207,0.00498047,
6512,-0.000610352,0.00497437,
6514,-0.00244141,0.00492554,
6516,0.00305176,0.00473633,
6518,-0.00488281,0.00471191,
6520,0.00427246,0.00463257,
6522,0.00244141,0.00460205,
6524,0.0164795,0.00461426,
6526,-0.00427246,0.00460815,
6528,0.0140381,0.00457153,
6530,-0.00854492,0.00454712,
6532,0.00305176,0.00452271,
6534,-0.00366211,0.00452271,
6536,-0.00488281,0.00446777,
6538,-0.00488281,0.00444336,
6540,-0.00427246,0.00446777,
6542,-0.00427246,0.0045105,
6544,0.000610352,0.00440063,
6546,0.00366211,0.00431519,
6548,-0.00976563,0.00439453,
6550,0.00427246,0.00441895,
6552,0.00671387,0.00446167,
6554,-0.00427246,0.00444946,
6556,0.00183105,0.00446777,
6558,-0.00183105,0.00446167,
6560,0.00427246,0.00449829,
6562,-0.0012207,0.00449829,
6564,0.00183105,0.0045105,
6566,0.0164795,0.00465698,
6568,-0.00183105,0.00467529,
6570,0.00488281,0.00467529,
6572,0.0170898,0.00477905,
6574,0.00305176,0.00479126,
6576,-0.00793457,0.00485229,
6578,-0.00427246,0.00488281,
6580,0.00976563,0.00496216,
6582,0.00305176,0.00494995,
6584,-0.00915527,0.0050293,
6586,-0.00244141,0.00496826,
6588,0.00244141,0.00494385,
6590,-0.00183105,0.00493164,
6592,0.00793457,0.00498657,
6594,0,0.00497437,
6596,0.00488281,0.00498047,
6598,0.00915527,0.00506592,
6600,0.00183105,0.00507813,
6602,0.00976563,0.00516357,
6604,0.010376,0.00523682,
6606,0,0.00512695,
6608,-0.00366211,0.00507813,
6610,0.00427246,0.00494995,
6612,0.0012207,0.00488892,
6614,-0.00427246,0.00483398,
6616,-0.00549316,0.00480347,
6618,-0.00488281,0.00474854,
6620,0.0012207,0.0046936,
6622,-0.00610352,0.00471802,
6624,0.00427246,0.00474854,
6626,0.00183105,0.00473633,
6628,-0.000610352,0.00473022,
6630,-0.00366211,0.00476685,
6632,0.0115967,0.00480957,
6634,0.00976563,0.00489502,
6636,-0.00549316,0.00487061,
6638,0.00305176,0.00487061,
6640,0.00427246,0.00488892,
6642,0.0012207,0.0048584,
6644,0.00488281,0.00487061,
6646,0.00549316,0.00489502,
6648,0.00183105,0.00480347,
6650,-0.00183105,0.00470581,
6652,0.00183105,0.00469971,
6654,-0.00183105,0.00466309,
6656,0.0140381,0.00473633,
6658,-0.0012207,0.00470581,
6660,-0.00671387,0.00476685,
6662,0.00854492,0.00474854,
6664,0.000610352,0.00472412,
6666,-0.00427246,0.00473022,
6668,0.00244141,0.00463257,
6670,-0.00366211,0.00460205,
6672,-0.00427246,0.00464478,
6674,0.00793457,0.0046814,
6676,-0.012207,0.0046875,
6678,0.000610352,0.00463257,
6680,0.00549316,0.00463257,
6682,-0.000610352,0.00462646,
6684,-0.00488281,0.00462036,
6686,-0.000610352,0.00453491,
6688,0.00732422,0.00460815,
6690,-0.00610352,0.00464478,
6692,-0.00244141,0.00466309,
6694,-0.00244141,0.00462646,
6696,0.00183105,0.00462036,
6698,-0.00183105,0.00462646,
6700,-0.00671387,0.00466919,
6702,0.00183105,0.0046875,
6704,0.000610352,0.0046936,
6706,0,0.00462646,
6708,0.00610352,0.00465698,
6710,0.0012207,0.00465698,
6712,-0.00793457,0.00473022,
6714,0.0012207,0.00471802,
6716,0.0146484,0.00483398,
6718,-0.0012207,0.00479736,
6720,0,0.00475464,
6722,0.000610352,0.00473633,
6724,-0.000610352,0.00457764,
6726,0.00549316,0.00458984,
6728,0.00610352,0.0045105,
6730,0.00793457,0.00450439,
6732,0,0.00447388,
6734,-0.00427246,0.00447998,
6736,0.00793457,0.0045105,
6738,-0.000610352,0.00446777,
6740,0.00915527,0.0045166,
6742,-0.00244141,0.00449829,
6744,0.00915527,0.00458374,
6746,0.00366211,0.00458374,
6748,-0.00244141,0.0045105,
6750,0.00427246,0.0045105,
6752,0.00854492,0.00452881,
6754,0.00366211,0.00452271,
6756,-0.000610352,0.0045105,
6758,0.000610352,0.00449829,
6760,0.00244141,0.00447998,
6762,0.00183105,0.00448608,
6764,0.00732422,0.00454102,
6766,0.000610352,0.00438232,
6768,0.000610352,0.00437012,
6770,0.00671387,0.00438843,
6772,0.00305176,0.00424805,
6774,0.0274658,0.00449219,
6776,0.012207,0.00453491,
6778,-0.00244141,0.0045166,
6780,-0.0158691,0.00457764,
6782,0.0109863,0.00465698,
6784,0.010376,0.00466919,
6786,0.00671387,0.00471191,
6788,-0.0219727,0.00490723,
6790,-0.00488281,0.00493774,
6792,-0.00305176,0.00488892,
6794,0.00183105,0.00490723,
6796,0.00427246,0.00490112,
6798,0.00488281,0.0048584,
6800,-0.00488281,0.00488892,
6802,0.00305176,0.00482178,
6804,0.00427246,0.00476074,
6806,0.000610352,0.00476685,
6808,0.00244141,0.00475464,
6810,0.0115967,0.00482788,
6812,-0.00305176,0.00484619,
6814,0.00549316,0.0048584,
6816,0.00549316,0.0048584,
6818,0.00793457,0.00488892,
6820,0.00366211,0.00491333,
6822,0.00427246,0.00489502,
6824,0.00244141,0.00487671,
6826,0.0109863,0.00496826,
6828,-0.000610352,0.00496826,
6830,0.00183105,0.00494995,
6832,0.00366211,0.00487061,
6834,0.0012207,0.00478516,
6836,0.00488281,0.00477905,
6838,-0.0012207,0.00476074,
6840,0,0.00471802,
6842,0.00488281,0.00475464,
6844,0.00305176,0.00473633,
6846,0.00732422,0.00475464,
6848,-0.00305176,0.00476685,
6850,0.00671387,0.00481567,
6852,-0.00183105,0.00481567,
6854,0.00732422,0.00487061,
6856,0.00305176,0.00476074,
6858,0.0012207,0.00476074,
6860,0.00305176,0.00472412,
6862,0.00793457,0.00471802,
6864,0.00244141,0.00473633,
6866,0.00244141,0.00471802,
6868,0.00610352,0.00475464,
6870,0.00427246,0.00476074,
6872,0.00854492,0.00480347,
6874,-0.00793457,0.00480347,
6876,0.00488281,0.00473022,
6878,0.00732422,0.00479736,
6880,0.00366211,0.00477905,
6882,0.00305176,0.00480347,
6884,0.00427246,0.00479736,
6886,0.00183105,0.00480957,
6888,0.00366211,0.00477295,
6890,0.0128174,0.00484009,
6892,0.00244141,0.00484009,
6894,-0.00305176,0.00484619,
6896,0.00305176,0.0048584,
6898,0.00244141,0.0048645,
6900,0.00793457,0.00487671,
6902,0.00732422,0.00493164,
6904,0.00305176,0.00495605,
6906,0.00183105,0.00497437,
6908,0.0012207,0.00492554,
6910,0.00854492,0.00499878,
6912,-0.00244141,0.00494385,
6914,-0.00244141,0.00495605,
6916,0.0134277,0.00494385,
6918,-0.00427246,0.00497437,
6920,-0.00610352,0.0050354,
6922,-0.00244141,0.00505371,
6924,0.0164795,0.0052124,
6926,0.00488281,0.0052063,
6928,0.00915527,0.00523682,
6930,-0.00610352,0.00521851,
6932,0.000610352,0.00522461,
6934,0.00488281,0.00523071,
6936,0.00549316,0.0052063,
6938,0,0.0052002,
6940,-0.010376,0.0052124,
6942,-0.000610352,0.00519409,
6944,-0.00305176,0.00513306,
6946,0.00610352,0.00515747,
6948,-0.00549316,0.00518799,
6950,0.0012207,0.00515747,
6952,0.00671387,0.00513916,
6954,-0.000610352,0.00510864,
6956,-0.00610352,0.00516357,
6958,0.0189209,0.00534668,
6960,-0.00610352,0.0053833,
6962,-0.00183105,0.0053833,
6964,0.00366211,0.00534668,
6966,0.00488281,0.0053894,
6968,-0.000610352,0.0053894,
6970,0.00366211,0.00535889,
6972,0.00305176,0.00535889,
6974,-0.00366211,0.00512085,
6976,0.00610352,0.00505981,
6978,0.00671387,0.00510254,
6980,-0.00183105,0.00496216,
6982,0.00366211,0.00488892,
6984,-0.0012207,0.00479736,
6986,0.0189209,0.00491943,
6988,0.000610352,0.00470581,
6990,-0.00793457,0.00473633,
6992,0.00488281,0.00475464,
6994,0.00183105,0.00475464,
6996,0.000610352,0.00471802,
6998,0.000610352,0.00467529,
7000,-0.000610352,0.00463257,
7002,0.00549316,0.00465698,
7004,0.0152588,0.00476685,
7006,0.00671387,0.00482788,
7008,-0.0152588,0.00495605,
7010,-0.00488281,0.00488892,
7012,0.0280762,0.00513916,
7014,-0.0012207,0.00509644,
7016,-0.00427246,0.00508423,
7018,-0.00427246,0.00504761,
7020,0.00183105,0.0050293,
7022,0.0134277,0.00512085,
7024,-0.00549316,0.00515137,
7026,-0.00305176,0.00507202,
7028,0.00488281,0.00511475,
7030,-0.0128174,0.00522461,
7032,0.00183105,0.0052063,
7034,0.0128174,0.00532227,
7036,-0.0177002,0.00545044,
7038,-0.00244141,0.00546265,
7040,0.0158691,0.00562134,
7042,0.00549316,0.00562744,
7044,0.0012207,0.00560913,
7046,0.00732422,0.00560913,
7048,0.0115967,0.00569458,
7050,0.000610352,0.00563354,
7052,-0.00305176,0.00564575,
7054,0.00427246,0.00561523,
7056,0.03479,0.00593262,
7058,-0.0134277,0.00605469,
7060,-0.00427246,0.00606689,
7062,0.0134277,0.00612183,
7064,0.00976563,0.00619507,
7066,0.000610352,0.00617676,
7068,0.00305176,0.00614624,
7070,-0.000610352,0.00610962,
7072,-0.00244141,0.00604858,
7074,-0.0012207,0.00598145,
7076,0.0146484,0.0060791,
7078,-0.010376,0.00610962,
7080,0.0012207,0.00608521,
7082,0.00427246,0.00609741,
7084,-0.00183105,0.006073,
7086,-0.000610352,0.00606079,
7088,-0.00305176,0.00605469,
7090,0.0012207,0.00593872,
7092,0.000610352,0.00592041,
7094,0.00610352,0.00595093,
7096,-0.0012207,0.00593262,
7098,0.00183105,0.00592651,
7100,0.00549316,0.0059021,
7102,0.00732422,0.0059021,
7104,0.00366211,0.0059082,
7106,0.000610352,0.005896,
7108,0.00427246,0.00592651,
7110,0.00183105,0.00585938,
7112,0.00366211,0.00587158,
7114,0.00183105,0.00586548,
7116,0,0.0057312,
7118,0.000610352,0.00569458,
7120,0.00427246,0.00567627,
7122,0.00793457,0.0057312,
7124,0.0189209,0.00575562,
7126,0.00549316,0.00576172,
7128,-0.00488281,0.00571899,
7130,0.00183105,0.00567627,
7132,0.010376,0.00577393,
7134,0.00183105,0.00574341,
7136,-0.00427246,0.0057312,
7138,-0.00549316,0.00578613,
7140,0.00366211,0.00571899,
7142,0.000610352,0.00571899,
7144,-0.00366211,0.0057251,
7146,0.0128174,0.00579224,
7148,0.00488281,0.00578613,
7150,0.0109863,0.00588379,
7152,0.00366211,0.00585327,
7154,0.00732422,0.00592041,
7156,-0.00305176,0.00588989,
7158,0.00427246,0.00574341,
7160,0.00488281,0.0057312,
7162,-0.00183105,0.0057312,
7164,0.000610352,0.00570068,
7166,0.00976563,0.00574951,
7168,-0.00915527,0.00583496,
7170,0.00366211,0.00583496,
7172,0.0140381,0.00594482,
7174,-0.00244141,0.00593262,
7176,0.0012207,0.00588379,
7178,0.00244141,0.00584106,
7180,0.00366211,0.00585938,
7182,0.00488281,0.00587158,
7184,-0.000610352,0.00586548,
7186,0.000610352,0.00568237,
7188,0.00427246,0.00571899,
7190,0.00488281,0.00568848,
7192,0.00488281,0.00568848,
7194,0.000610352,0.00567627,
7196,0.00549316,0.0057251,
7198,0.00610352,0.00578003,
7200,0.0012207,0.00578613,
7202,0.00549316,0.00578613,
7204,0.00305176,0.00566406,
7206,0.00366211,0.00563354,
7208,-0.00305176,0.00551147,
7210,-0.0012207,0.00547485,
7212,0.0115967,0.00531006,
7214,0.00183105,0.00531616,
7216,0.00183105,0.00529175,
7218,0.00488281,0.00529785,
7220,0.00793457,0.00535889,
7222,0.00671387,0.00529175,
7224,0.00549316,0.00529175,
7226,-0.00488281,0.00531006,
7228,0.0195313,0.00545654,
7230,0.00488281,0.0053772,
7232,0.0189209,0.0055481,
7234,-0.0189209,0.00560913,
7236,0.00244141,0.00545654,
7238,0.0213623,0.00564575,
7240,0.0109863,0.00559692,
7242,0,0.00554199,
7244,-0.00488281,0.00557861,
7246,0.00305176,0.00553589,
7248,0.00305176,0.00545044,
7250,0.00610352,0.00550537,
7252,0.00671387,0.00554199,
7254,0.0012207,0.00551147,
7256,0.0012207,0.00517578,
7258,0.00305176,0.00507202,
7260,0.00244141,0.00505371,
7262,0.00549316,0.00497437,
7264,0.0012207,0.00488892,
7266,0.00244141,0.00490723,
7268,0.00976563,0.00497437,
7270,0.00549316,0.00502319,
7272,-0.000610352,0.00500488,
7274,-0.000610352,0.00499878,
7276,0.0170898,0.00502319,
7278,0.00244141,0.00494385,
7280,-0.00427246,0.00497437,
7282,0.00183105,0.00494995,
7284,0.00549316,0.00498657,
7286,0.00488281,0.0050293,
7288,0.00305176,0.0050293,
7290,0.0164795,0.00518188,
7292,-0.00549316,0.00523071,
7294,-0.00915527,0.00526123,
7296,0.0128174,0.0053772,
7298,0.000610352,0.00536499,
7300,0.00427246,0.00535278,
7302,-0.00793457,0.00535889,
7304,-0.00244141,0.00534668,
7306,-0.00244141,0.00536499,
7308,-0.0012207,0.00533447,
7310,0.00244141,0.00534058,
7312,-0.00305176,0.00533447,
7314,0.0115967,0.00543213,
7316,-0.000610352,0.00543823,
7318,0.00427246,0.00547485,
7320,0.00244141,0.00545654,
7322,0.000610352,0.0053833,
7324,0.00915527,0.00528564,
7326,-0.00366211,0.00526733,
7328,0,0.00521851,
7330,-0.000610352,0.0052063,
7332,0.000610352,0.00510864,
7334,-0.00488281,0.00513916,
7336,-0.00488281,0.00514526,
7338,-0.00183105,0.00510864,
7340,0.010376,0.00517578,
7342,-0.00671387,0.00523682,
7344,0.00732422,0.00527344,
7346,-0.0115967,0.00526123,
7348,0.0012207,0.00522461,
7350,0.0128174,0.00524292,
7352,-0.00671387,0.00527344,
7354,0.00183105,0.00521851,
7356,-0.00305176,0.00521851,
7358,-0.00366211,0.0052124,
7360,0.00183105,0.00518188,
7362,0.0012207,0.00517578,
7364,-0.0012207,0.00518188,
7366,-0.000610352,0.00509033,
7368,0.000610352,0.00500488,
7370,0.0012207,0.00498047,
7372,-0.00427246,0.00488281,
7374,0.0012207,0.00487061,
7376,0.00427246,0.00490112,
7378,-0.00488281,0.00492554,
7380,-0.00183105,0.00490723,
7382,0.00793457,0.00493774,
7384,-0.0012207,0.00494385,
7386,-0.00671387,0.00500488,
7388,-0.0012207,0.00497437,
7390,0.00366211,0.00496216,
7392,-0.00427246,0.00495605,
7394,-0.00549316,0.00500488,
7396,-0.000610352,0.00495605,
7398,0.0183105,0.00507813,
7400,-0.0115967,0.00518188,
7402,-0.000610352,0.00513306,
7404,0.00610352,0.00516357,
7406,0.0128174,0.00525513,
7408,-0.00366211,0.00526123,
7410,0.0012207,0.00526123,
7412,0.00915527,0.00523682,
7414,-0.00183105,0.00523682,
7416,0.0115967,0.00533447,
7418,-0.00488281,0.00533447,
7420,-0.00549316,0.00531006,
7422,0.010376,0.00534668,
7424,0.00671387,0.00535889,
7426,-0.0012207,0.00532227,
7428,0.00183105,0.00514526,
7430,0.000610352,0.00510254,
7432,-0.00305176,0.00494385,
7434,0.00305176,0.00478516,
7436,0.00488281,0.00480957,
7438,0.00244141,0.00462036,
7440,-0.00183105,0.00452881,
7442,0.0012207,0.00454102,
7444,0.00488281,0.00454102,
7446,0.00427246,0.00455322,
7448,-0.000610352,0.00452881,
7450,0.00610352,0.00452881,
7452,0.00976563,0.00455933,
7454,0.00305176,0.00457764,
7456,0.0012207,0.00457764,
7458,0.00732422,0.00462036,
7460,0.00244141,0.00462036,
7462,0,0.00456543,
7464,0.0109863,0.00466309,
7466,0.00488281,0.0046875,
7468,0.00305176,0.00462036,
7470,0.00488281,0.00461426,
7472,0.00915527,0.00469971,
7474,0.00854492,0.00477905,
7476,0.00549316,0.00466309,
7478,-0.00488281,0.0046875,
7480,0.00671387,0.00471191,
7482,0.00183105,0.00471191,
7484,-0.00305176,0.0046875,
7486,0,0.00463867,
7488,-0.00549316,0.00466309,
7490,0.00427246,0.00454102,
7492,0.010376,0.00458984,
7494,0.0128174,0.00462646,
7496,-0.0140381,0.00463867,
7498,0.0170898,0.00480347,
7500,0.00366211,0.00479736,
7502,0.00244141,0.00474243,
7504,0.0164795,0.00488281,
7506,-0.00732422,0.00493164,
7508,-0.00671387,0.00498657,
7510,0.00610352,0.00502319,
7512,-0.000610352,0.00499878,
7514,-0.0012207,0.00489502,
7516,-0.00671387,0.00495605,
7518,0.00244141,0.00493774,
7520,0.000610352,0.00491943,
7522,-0.00366211,0.00494995,
7524,0,0.0048584,
7526,0.00305176,0.00485229,
7528,0.00183105,0.00487061,
7530,0.000610352,0.00487061,
7532,0.0109863,0.00497437,
7534,0.000610352,0.00493164,
7536,-0.00244141,0.00490723,
7538,0.00793457,0.00496826,
7540,0.000610352,0.00487061,
7542,0.00183105,0.00482178,
7544,0,0.00474854,
7546,0,0.00463257,
7548,0,0.00462036,
7550,0.00732422,0.00456543,
7552,-0.00244141,0.00452271,
7554,0.00366211,0.00454102,
7556,0.00305176,0.00454102,
7558,0.0012207,0.0045166,
7560,0.00366211,0.00453491,
7562,0.00671387,0.00458984,
7564,0.00915527,0.00466919,
7566,-0.0012207,0.00467529,
7568,0.00244141,0.0046936,
7570,0.00366211,0.00471802,
7572,0.00488281,0.00472412,
7574,0.00915527,0.00480347,
7576,0.00366211,0.00479736,
7578,-0.00793457,0.00482788,
7580,-0.00488281,0.0048584,
7582,0.00427246,0.00482178,
7584,0.0189209,0.00499878,
7586,-0.00366211,0.00496826,
7588,0.0012207,0.00496826,
7590,0.00488281,0.00498047,
7592,0.012207,0.00505981,
7594,0.0146484,0.00515137,
7596,-0.000610352,0.00515137,
7598,0.00427246,0.00501099,
7600,0.00671387,0.00496216,
7602,0,0.00495605,
7604,-0.00244141,0.00491943,
7606,0.00366211,0.00482788,
7608,0.00427246,0.00483398,
7610,0.0012207,0.00483398,
7612,0.00427246,0.00478516,
7614,-0.00244141,0.00479126,
7616,0.00427246,0.00471802,
7618,0.0012207,0.0046814,
7620,-0.0012207,0.00463867,
7622,0.00427246,0.00457764,
7624,0.00427246,0.00455322,
7626,0.00671387,0.00460815,
7628,0.00244141,0.00461426,
7630,0.0134277,0.00474243,
7632,-0.0128174,0.00484009,
7634,0.00366211,0.00484619,
7636,0.00854492,0.00488281,
7638,0.0012207,0.00487061,
7640,-0.00793457,0.00493164,
7642,-0.00915527,0.00501099,
7644,0.00183105,0.00498047,
7646,0.00244141,0.00496216,
7648,0.00366211,0.00499268,
7650,-0.00183105,0.00494995,
7652,-0.000610352,0.0048584,
7654,0.00671387,0.00489502,
7656,0.00549316,0.00493774,
7658,0.00183105,0.00488281,
7660,0.00305176,0.00488892,
7662,0.00183105,0.00490723,
7664,-0.000610352,0.00480347,
7666,-0.00427246,0.00479736,
7668,0.0115967,0.00488281,
7670,0.00244141,0.0048584,
7672,-0.000610352,0.00477295,
7674,0.0140381,0.00482788,
7676,0.00915527,0.0048645,
7678,-0.000610352,0.00482178,
7680,-0.00305176,0.00478516,
7682,0.00671387,0.00483398,
7684,0.0012207,0.00481567,
7686,0.00488281,0.0048645,
7688,-0.00305176,0.00484009,
7690,0.000610352,0.00480347,
7692,-0.00305176,0.00473022,
7694,0.00305176,0.00463257,
7696,0.00610352,0.00455322,
7698,0.00366211,0.00441895,
7700,0.00244141,0.00440674,
7702,0.00366211,0.00441895,
7704,0.000610352,0.00426025,
7706,0.00305176,0.00421753,
7708,0.00305176,0.00418091,
7710,0.00305176,0.00415039,
7712,0.000610352,0.00415039,
7714,0.00610352,0.00419922,
7716,0.00183105,0.00415039,
7718,0.00854492,0.00421143,
7720,-0.0012207,0.00421753,
7722,0.00366211,0.00421753,
7724,0.00305176,0.00424805,
7726,0.00366211,0.00425415,
7728,0.00305176,0.00426636,
7730,0.00183105,0.00427856,
7732,0.00793457,0.00424805,
7734,0.00427246,0.00428467,
7736,0,0.00426025,
7738,0.010376,0.00428467,
7740,0.0115967,0.00439453,
7742,-0.00671387,0.00444336,
7744,0.00854492,0.00452881,
7746,0.00427246,0.00457153,
7748,-0.000610352,0.00457764,
7750,0.00305176,0.00453491,
7752,0.000610352,0.0045166,
7754,0,0.00447998,
7756,0.00305176,0.00447998,
7758,-0.00183105,0.00448608,
7760,0.0109863,0.00455933,
7762,0.00183105,0.0045105,
7764,0.00854492,0.00450439,
7766,0.010376,0.00459595,
7768,0.010376,0.00467529,
7770,-0.0012207,0.00465088,
7772,0.0152588,0.00475464,
7774,0.012207,0.00478516,
7776,0.00427246,0.00479126,
7778,-0.000610352,0.00471802,
7780,0.00732422,0.00474243,
7782,0.00793457,0.00477905,
7784,0.00183105,0.00460815,
7786,0.010376,0.00467529,
7788,-0.00427246,0.00470581,
7790,0,0.00465698,
7792,0.00793457,0.00461426,
7794,0.00488281,0.0045166,
7796,-0.00427246,0.00455322,
7798,-0.0012207,0.00452271,
7800,0.00854492,0.00454102,
7802,-0.0012207,0.00455322,
7804,0.00488281,0.00457764,
7806,0.00671387,0.00460815,
7808,0.00366211,0.00460205,
7810,0.00244141,0.00461426,
7812,0.00488281,0.00462036,
7814,0.00915527,0.0046875,
7816,0.000610352,0.00465088,
7818,0.00671387,0.00470581,
7820,0.000610352,0.00469971,
7822,0.0012207,0.00466919,
7824,0.00427246,0.00466919,
7826,0.00366211,0.00463867,
7828,0.00244141,0.00463867,
7830,0.00549316,0.00455933,
7832,0.000610352,0.00443726,
7834,0.00732422,0.00447388,
7836,0.00732422,0.00446167,
7838,0.00976563,0.00454712,
7840,0.00610352,0.00452881,
7842,0.00793457,0.0045166,
7844,0.0109863,0.00460815,
7846,0.00915527,0.00467529,
7848,-0.000610352,0.00464478,
7850,0.00305176,0.00465698,
7852,0.00732422,0.00472412,
7854,0.012207,0.00477905,
7856,0.000610352,0.00473022,
7858,0.00610352,0.00477295,
7860,0.00671387,0.00480957,
7862,0.00976563,0.00488892,
7864,0.0183105,0.00506592,
7866,0.00854492,0.00510864,
7868,0.0152588,0.00514526,
7870,0.00183105,0.00513916,
7872,0.00305176,0.00516357,
7874,0.00976563,0.00512085,
7876,-0.00427246,0.00507202,
7878,-0.00244141,0.00509033,
7880,-0.00671387,0.00512695,
7882,-0.0012207,0.00507202,
7884,0.00793457,0.00513916,
7886,-0.0109863,0.0052002,
7888,0.0012207,0.00518188,
7890,0.0134277,0.00531006,
7892,0.0115967,0.00539551,
7894,-0.0109863,0.00547485,
7896,-0.0012207,0.00542603,
7898,0.0128174,0.00551758,
7900,0.000610352,0.00549927,
7902,0.00305176,0.00549316,
7904,0.00183105,0.00550537,
7906,-0.00610352,0.00553589,
7908,0.00427246,0.0055481,
7910,0.00610352,0.00557861,
7912,0.00305176,0.00560303,
7914,0.00488281,0.00559082,
7916,0.00305176,0.00560303,
7918,0.00610352,0.00557861,
7920,0.00671387,0.00563354,
7922,-0.000610352,0.00560303,
7924,0.00427246,0.00561523,
7926,0.00793457,0.00565796,
7928,-0.000610352,0.00563354,
7930,0.00305176,0.00564575,
7932,0.000610352,0.00557251,
7934,0.00793457,0.00560913,
7936,0.00366211,0.00564575,
7938,0,0.00554199,
7940,0.00671387,0.00549316,
7942,0.00671387,0.00549316,
7944,0.010376,0.00551147,
7946,0.000610352,0.00547485,
7948,0.0109863,0.00557861,
7950,0.0115967,0.00566406,
7952,0.0012207,0.00567017,
7954,0.00732422,0.00574341,
7956,0.00244141,0.0057373,
7958,0.00183105,0.0057373,
7960,0.00305176,0.00565796,
7962,0.0012207,0.00565186,
7964,0.0012207,0.00557861,
7966,0.0012207,0.00548706,
7968,0.00244141,0.00540771,
7970,-0.000610352,0.00540161,
7972,0.00244141,0.00527344,
7974,0.0012207,0.00516357,
7976,0.00305176,0.00515137,
7978,0.00488281,0.00519409,
7980,-0.00244141,0.00514526,
7982,0.00305176,0.00509644,
7984,0.00610352,0.00513916,
7986,0.00732422,0.00510864,
7988,0.0183105,0.00524902,
7990,-0.0201416,0.00545044,
7992,0.0177002,0.0055481,
7994,0.00610352,0.0055603,
7996,0.0012207,0.00552979,
7998,0,0.00551758,
8000,-0.0012207,0.00544434,
8002,0,0.00543213,
8004,0.00366211,0.00541992,
8006,0.00183105,0.00537109,
8008,0.00244141,0.00535889,
8010,0.00488281,0.0053833,
8012,0.00427246,0.0053772,
8014,0.00488281,0.00533447,
8016,0.00488281,0.0053772,
8018,0.00549316,0.00536499,
8020,0.00549316,0.00541382,
8022,0.00366211,0.00543823,
8024,0.00549316,0.00545044,
8026,0.00671387,0.00548096,
8028,0.00488281,0.00550537,
8030,0.00305176,0.00548096,
8032,0.00366211,0.00551147,
8034,0.0109863,0.0055481,
8036,0.00671387,0.00554199,
8038,0.0183105,0.00562744,
8040,-0.012207,0.00568848,
8042,0.00732422,0.00568237,
8044,0.0128174,0.00570068,
8046,-0.00244141,0.00563354,
8048,0.00244141,0.00565186,
8050,0.00366211,0.00565796,
8052,0,0.00558472,
8054,-0.00305176,0.00549316,
8056,0.00427246,0.00552979,
8058,0.00854492,0.0055542,
8060,0.00732422,0.0055603,
8062,0.00671387,0.00552979,
8064,-0.0012207,0.00535889,
8066,0.00549316,0.00532837,
8068,0.00671387,0.00524292,
8070,0.00183105,0.00524292,
8072,-0.00488281,0.00526123,
8074,0.00244141,0.00518799,
8076,0.00183105,0.00516357,
8078,0.00244141,0.00516357,
8080,0.00488281,0.00514526,
8082,-0.00915527,0.00522461,
8084,-0.00305176,0.00517578,
8086,0.00610352,0.00512695,
8088,0.00915527,0.0052063,
8090,-0.00183105,0.00509033,
8092,-0.00488281,0.00502319,
8094,0.00488281,0.00496216,
8096,0.0115967,0.00506592,
8098,-0.00488281,0.00498657,
8100,-0.000610352,0.00498657,
8102,0.00244141,0.00498047,
8104,-0.00183105,0.00498047,
8106,-0.00183105,0.00493774,
8108,0.00183105,0.00491333,
8110,-0.00732422,0.00492554,
8112,0.00427246,0.00493774,
8114,0.0012207,0.00490112,
8116,0,0.00487061,
8118,0.000610352,0.00481567,
8120,-0.00427246,0.00479126,
8122,0.00488281,0.00483398,
8124,-0.000610352,0.00479736,
8126,0,0.00471802,
8128,0.000610352,0.00471802,
8130,0.00183105,0.00470581,
8132,0.00488281,0.00474854,
8134,0.00793457,0.00474854,
8136,0,0.00471191,
8138,-0.00488281,0.00476074,
8140,0.00854492,0.00477905,
8142,-0.00549316,0.00476685,
8144,-0.0012207,0.00467529,
8146,0.00610352,0.00473022,
8148,-0.00610352,0.0046814,
8150,-0.00427246,0.00460815,
8152,0.00427246,0.00463867,
8154,0.00305176,0.00459595,
8156,0.00793457,0.00465088,
8158,0.00671387,0.00469971,
8160,-0.0012207,0.0046814,
8162,0.00488281,0.00471802,
8164,0.0134277,0.00484009,
8166,0.00549316,0.00488281,
8168,0.00366211,0.00489502,
8170,0.00854492,0.00497437,
8172,-0.00183105,0.00496826,
8174,0.00976563,0.00505371,
8176,0.00305176,0.00505371,
8178,0,0.00500488,
8180,0.00488281,0.0050293,
8182,0.00305176,0.0050293,
8184,-0.00488281,0.00501709,
8186,0.00366211,0.00498047,
8188,0.00610352,0.0048584,
8190,0.0012207,0.00466919,
8192,0.0158691,0.00465088,
8194,0.00244141,0.00461426,
8196,-0.0012207,0.00461426,
8198,0.00732422,0.0046875,
8200,0.00671387,0.00474243,
8202,0.00732422,0.00481567,
8204,0.00305176,0.00480957,
8206,0.00488281,0.00484009,
8208,0.00183105,0.00483398,
8210,0.00244141,0.00480957,
8212,0.00732422,0.00484009,
8214,0.00610352,0.00485229,
8216,0.0109863,0.00491333,
8218,0,0.0048584,
8220,0.000610352,0.00480957,
8222,0.010376,0.00487671,
8224,0.0164795,0.00498657,
8226,0.00915527,0.00501099,
8228,0,0.00496216,
8230,-0.00976563,0.0050293,
8232,0.0134277,0.00512695,
8234,0.0152588,0.00516968,
8236,0.00366211,0.00513916,
8238,-0.000610352,0.00496216,
8240,0.00183105,0.0048584,
8242,0.00488281,0.00483398,
8244,0.00366211,0.00474243,
8246,0.00976563,0.00481567,
8248,0.00488281,0.00484009,
8250,0.00183105,0.00482178,
8252,0.0109863,0.00493164,
8254,0,0.00490112,
8256,0.00244141,0.00488281,
8258,0.00610352,0.0048584,
8260,0.00549316,0.00484009,
8262,0.00915527,0.0048645,
8264,-0.000610352,0.0048584,
8266,0.00549316,0.0048584,
8268,0.00183105,0.00480957,
8270,0.00915527,0.00488281,
8272,0,0.00483398,
8274,0.00976563,0.00490723,
8276,-0.000610352,0.00489502,
8278,0.00488281,0.00491943,
8280,-0.00671387,0.00493774,
8282,0.0134277,0.00498047,
8284,0.00610352,0.00501099,
8286,0.0012207,0.00496216,
8288,-0.0012207,0.00488281,
8290,0.00793457,0.00494385,
8292,0.00488281,0.00494385,
8294,0.00549316,0.00494995,
8296,0.00427246,0.00487671,
8298,0.00305176,0.0048584,
8300,0.00183105,0.00487061,
8302,0.00549316,0.00490112,
8304,0.0140381,0.00502319,
8306,0.00732422,0.00507813,
8308,-0.00427246,0.00510254,
8310,-0.0012207,0.0050415,
8312,0.0128174,0.00512695,
8314,0.00366211,0.00515137,
8316,0.00427246,0.00519409,
8318,0.00610352,0.00524902,
8320,0.00488281,0.00525513,
8322,-0.00793457,0.00528564,
8324,0.0152588,0.00543213,
8326,0.00793457,0.00551147,
8328,0,0.00550537,
8330,0.00366211,0.00552368,
8332,0.000610352,0.00548096,
8334,0.00366211,0.00543823,
8336,0.00183105,0.00545654,
8338,-0.00488281,0.00545654,
8340,-0.0012207,0.0053833,
8342,0.00976563,0.00542603,
8344,-0.00244141,0.00543823,
8346,-0.00305176,0.00540771,
8348,0.0115967,0.00546265,
8350,-0.00732422,0.00549316,
8352,0.000610352,0.00545654,
8354,0.00671387,0.00549316,
8356,-0.00610352,0.00547485,
8358,-0.000610352,0.00541382,
8360,0.0012207,0.00541382,
8362,0.00183105,0.0053833,
8364,0,0.00524902,
8366,-0.000610352,0.0052002,
8368,0,0.00516357,
8370,0.0012207,0.00509033,
8372,0.00183105,0.00509033,
8374,0.00305176,0.00502319,
8376,0.00976563,0.00509033,
8378,0,0.00509033,
8380,0.00305176,0.00507202,
8382,0,0.0050415,
8384,0.00671387,0.00505981,
8386,0.00549316,0.00507813,
8388,0.000610352,0.00502319,
8390,0.0012207,0.00502319,
8392,0.0012207,0.00487671,
8394,0.00427246,0.00489502,
8396,0,0.00488281,
8398,0.00671387,0.00487671,
8400,-0.00976563,0.00490723,
8402,0.00915527,0.00492554,
8404,0.0012207,0.00490723,
8406,0.00549316,0.00491333,
8408,-0.00549316,0.00494995,
8410,-0.00183105,0.00494385,
8412,0.00549316,0.00492554,
8414,0.00183105,0.00488281,
8416,-0.00244141,0.00479736,
8418,0.00244141,0.00482178,
8420,-0.00183105,0.00483398,
8422,0.00244141,0.00475464,
8424,-0.0012207,0.00460205,
8426,0.00183105,0.00452881,
8428,-0.000610352,0.00453491,
8430,0.00366211,0.00447388,
8432,0.000610352,0.0043457,
8434,0,0.00419312,
8436,0.000610352,0.0041626,
8438,-0.00183105,0.0041748,
8440,-0.00244141,0.00418091,
8442,0.00671387,0.00419922,
8444,-0.00366211,0.00419922,
8446,0.00366211,0.00413818,
8448,-0.00366211,0.00412598,
8450,-0.00427246,0.00415039,
8452,0,0.00404053,
8454,0.00366211,0.00407715,
8456,-0.00549316,0.00410767,
8458,-0.00488281,0.00409546,
8460,0,0.00404053,
8462,-0.00610352,0.00401001,
8464,0.0012207,0.00401611,
8466,-0.00488281,0.00401001,
8468,0.00915527,0.00408325,
8470,-0.00549316,0.00404663,
8472,-0.00183105,0.00406494,
8474,-0.00305176,0.0039978,
8476,0.0012207,0.00400391,
8478,-0.00183105,0.00397339,
