AnaPao-C-Musc-ABC-L01
Gráfico creado el:2026-06-05 13:59:57.402
Registro en:2026-06-05 14:00:35.749
2 mseg/muestras
2 canales
EMG
mV
EMG Integrado
mV-sec
milliSec,CH1,CH40,
,353646 samples,353646 samples,
0,-0.00671387,6.71387E-05,
2,-0.00671387,0.000134277,
4,-0.00671387,0.000201416,
6,-0.00244141,0.00022583,
8,-0.010376,0.00032959,
10,-0.00976563,0.000427246,
12,-0.00610352,0.000488281,
14,-0.00915527,0.000579834,
16,-0.00732422,0.000653076,
18,-0.010376,0.000756836,
20,-0.010376,0.000860596,
22,-0.00854492,0.000946045,
24,-0.00854492,0.00103149,
26,-0.010376,0.00113525,
28,-0.00854492,0.0012207,
30,-0.00915527,0.00131226,
32,-0.00732422,0.0013855,
34,-0.00793457,0.00146484,
36,-0.00793457,0.00154419,
38,-0.00854492,0.00162964,
40,-0.010376,0.0017334,
42,-0.00671387,0.00180054,
44,-0.00793457,0.00187988,
46,-0.00854492,0.00196533,
48,-0.00976563,0.00206299,
50,-0.0109863,0.00217285,
52,-0.00610352,0.00223389,
54,-0.00793457,0.00231323,
56,-0.00732422,0.00238647,
58,-0.00671387,0.00245361,
60,-0.00732422,0.00252686,
62,-0.00671387,0.00259399,
64,-0.00488281,0.00264282,
66,-0.00610352,0.00270386,
68,-0.00366211,0.00274048,
70,-0.00610352,0.00280151,
72,-0.0012207,0.00281372,
74,-0.0152588,0.00296631,
76,-0.00671387,0.00303345,
78,-0.00305176,0.00306396,
80,-0.00610352,0.003125,
82,-0.00854492,0.00321045,
84,-0.0109863,0.00332031,
86,-0.00793457,0.00339966,
88,-0.00366211,0.00343628,
90,-0.00854492,0.00352173,
92,-0.00915527,0.00361328,
94,-0.00305176,0.0036438,
96,-0.00976563,0.00374146,
98,-0.00732422,0.0038147,
100,-0.00610352,0.00387573,
102,-0.00793457,0.00395508,
104,-0.00854492,0.00404053,
106,-0.00183105,0.00405884,
108,-0.0115967,0.0041748,
110,-0.00610352,0.00423584,
112,-0.00549316,0.00429077,
114,-0.00976563,0.00438843,
116,-0.00549316,0.00444336,
118,-0.00427246,0.00448608,
120,-0.0134277,0.00462036,
122,-0.00732422,0.0046936,
124,-0.00671387,0.00476074,
126,-0.00915527,0.00485229,
128,-0.010376,0.00495605,
130,-0.00854492,0.0050415,
132,-0.00854492,0.00512695,
134,-0.010376,0.00523071,
136,-0.00915527,0.00532227,
138,-0.010376,0.00542603,
140,-0.00854492,0.00551147,
142,-0.00915527,0.00560303,
144,-0.00976563,0.00570068,
146,-0.00854492,0.00578613,
148,-0.00915527,0.00587769,
150,-0.010376,0.00598145,
152,-0.00427246,0.00602417,
154,-0.0158691,0.00618286,
156,-0.0109863,0.00629272,
158,0,0.00629272,
160,-0.0128174,0.0064209,
162,-0.00854492,0.00650635,
164,-0.00732422,0.00657959,
166,-0.0109863,0.00668945,
168,-0.00671387,0.00675659,
170,-0.00549316,0.00681152,
172,-0.00732422,0.00688477,
174,-0.010376,0.00698853,
176,-0.010376,0.00709229,
178,-0.00732422,0.00716553,
180,-0.00915527,0.00725708,
182,-0.00671387,0.00732422,
184,-0.00793457,0.00740356,
186,-0.00610352,0.0074646,
188,-0.00793457,0.00754395,
190,-0.010376,0.00764771,
192,-0.00671387,0.00771484,
194,-0.00915527,0.0078064,
196,-0.00976563,0.00790405,
198,-0.00976563,0.00800171,
200,-0.0115967,0.00805054,
202,-0.0115967,0.00809937,
204,-0.0115967,0.00814819,
206,-0.00793457,0.00820313,
208,-0.010376,0.00820313,
210,-0.00976563,0.00820313,
212,-0.00366211,0.00817871,
214,-0.0152588,0.00823975,
216,-0.00915527,0.00825806,
218,-0.00793457,0.00823364,
220,-0.010376,0.00823364,
222,-0.0109863,0.00825806,
224,-0.0115967,0.00828857,
226,-0.0109863,0.00829468,
228,-0.012207,0.0083313,
230,-0.012207,0.00836182,
232,-0.010376,0.00839233,
234,-0.010376,0.00841675,
236,-0.010376,0.00844116,
238,-0.0109863,0.00846558,
240,-0.00976563,0.00845947,
242,-0.0152588,0.00854492,
244,-0.00610352,0.00852661,
246,-0.00915527,0.00853271,
248,-0.0115967,0.00855103,
250,-0.00976563,0.00853882,
252,-0.00976563,0.00857544,
254,-0.010376,0.00859985,
256,-0.010376,0.00863037,
258,-0.00854492,0.00864868,
260,-0.010376,0.0086792,
262,-0.0115967,0.00872803,
264,-0.0115967,0.00879517,
266,-0.00610352,0.00879517,
268,-0.00793457,0.00883789,
270,-0.0146484,0.00892334,
272,-0.012207,0.0090332,
274,-0.00915527,0.00897217,
276,-0.00793457,0.00898438,
278,-0.0115967,0.00906982,
280,-0.0115967,0.00912476,
282,-0.00793457,0.00911865,
284,-0.00854492,0.00909424,
286,-0.010376,0.00911865,
288,-0.00915527,0.00917358,
290,-0.00671387,0.00915527,
292,-0.00976563,0.00916138,
294,-0.00793457,0.00921021,
296,-0.00793457,0.00919189,
298,-0.00427246,0.00916138,
300,-0.012207,0.00922241,
302,-0.00732422,0.00921631,
304,-0.00915527,0.00922241,
306,-0.00305176,0.00923462,
308,-0.0115967,0.00923462,
310,-0.012207,0.00929565,
312,-0.00793457,0.00932007,
314,-0.0109863,0.00933228,
316,-0.0109863,0.00938721,
318,-0.00976563,0.00944214,
320,-0.010376,0.00941162,
322,-0.00976563,0.00943604,
324,-0.00915527,0.00946045,
326,-0.0140381,0.00950928,
328,-0.0109863,0.00951538,
330,-0.0128174,0.00955811,
332,-0.00732422,0.0095459,
334,-0.0134277,0.00957642,
336,-0.0115967,0.00960083,
338,-0.0128174,0.00962524,
340,-0.0115967,0.00965576,
342,-0.00915527,0.00965576,
344,-0.012207,0.00968018,
346,-0.010376,0.00969849,
348,-0.010376,0.00971069,
350,-0.0128174,0.00973511,
352,-0.00732422,0.00976563,
354,-0.00915527,0.00969849,
356,-0.010376,0.00969238,
358,-0.00976563,0.00979004,
360,-0.0109863,0.00977173,
362,-0.00549316,0.00974121,
364,-0.0109863,0.00977783,
366,-0.00854492,0.00975342,
368,-0.00793457,0.00976563,
370,-0.010376,0.00981445,
372,-0.010376,0.00984497,
374,-0.0109863,0.00985107,
376,-0.0134277,0.00988159,
378,-0.00183105,0.00982666,
380,-0.0109863,0.00984497,
382,-0.00793457,0.00985718,
384,-0.00854492,0.00986328,
386,-0.00793457,0.00988159,
388,-0.00305176,0.00983276,
390,-0.00183105,0.00974731,
392,-0.012207,0.00980225,
394,-0.0128174,0.00983887,
396,-0.0012207,0.00975342,
398,-0.00732422,0.009729,
400,-0.00915527,0.00970459,
402,-0.00854492,0.00967407,
404,-0.00732422,0.00963135,
406,-0.00549316,0.00960693,
408,-0.00671387,0.00957031,
410,-0.00793457,0.009552,
412,-0.00427246,0.00955811,
414,-0.010376,0.00950928,
416,-0.00427246,0.00946045,
418,-0.00915527,0.00947266,
420,-0.00793457,0.00944824,
422,-0.00732422,0.00941162,
424,-0.00732422,0.0093689,
426,-0.00671387,0.00932617,
428,-0.00549316,0.00925903,
430,-0.000610352,0.00914307,
432,-0.0115967,0.00915527,
434,-0.00671387,0.00911865,
436,-0.00549316,0.00906982,
438,-0.00915527,0.00905151,
440,-0.00854492,0.00903931,
442,-0.00915527,0.00897827,
444,-0.00732422,0.00899048,
446,-0.00793457,0.00897827,
448,-0.00366211,0.00889893,
450,-0.0134277,0.00893555,
452,-0.00488281,0.00888672,
454,-0.00488281,0.00883179,
456,-0.00244141,0.00875244,
458,-0.0109863,0.00877686,
460,-0.00671387,0.00874023,
462,-0.00549316,0.0086792,
464,-0.00793457,0.00864258,
466,-0.00671387,0.00864868,
468,-0.00732422,0.00864258,
470,-0.00732422,0.00856934,
472,-0.00793457,0.00852661,
474,-0.00793457,0.0085144,
476,-0.00854492,0.00852051,
478,-0.00793457,0.00848389,
480,-0.00854492,0.00845337,
482,-0.00793457,0.00845337,
484,-0.00915527,0.00845947,
486,-0.00671387,0.00842285,
488,-0.00976563,0.00842896,
490,-0.00366211,0.00839844,
492,-0.0128174,0.00842896,
494,-0.0109863,0.00845947,
496,-0.00732422,0.00845337,
498,-0.00549316,0.00846558,
500,-0.00549316,0.00839844,
502,-0.022583,0.00855103,
504,0.00854492,0.00854492,
506,-0.00976563,0.00861206,
508,-0.0134277,0.00863037,
510,-0.00366211,0.00854492,
512,-0.00732422,0.00853882,
514,-0.00793457,0.0085083,
516,-0.00915527,0.00848999,
518,-0.00854492,0.00847778,
520,-0.00793457,0.00845337,
522,-0.00793457,0.00843506,
524,-0.00671387,0.00841064,
526,-0.0109863,0.00838013,
528,-0.00976563,0.00836792,
530,-0.00793457,0.00831909,
532,-0.00732422,0.00831909,
534,-0.010376,0.00828857,
536,-0.00854492,0.00825806,
538,-0.00915527,0.00822144,
540,-0.00793457,0.00818481,
542,-0.00854492,0.00817871,
544,-0.00671387,0.00812378,
546,-0.00671387,0.00808716,
548,-0.00854492,0.00806885,
550,-0.00732422,0.00801392,
552,-0.00854492,0.00802612,
554,-0.00671387,0.00800171,
556,-0.00732422,0.00797119,
558,-0.00793457,0.00795288,
560,-0.0109863,0.00795288,
562,-0.00366211,0.00793457,
564,-0.00854492,0.00791016,
566,-0.00549316,0.00787964,
568,-0.00793457,0.00787964,
570,-0.00610352,0.00783691,
572,-0.00793457,0.0078125,
574,-0.00732422,0.00777588,
576,-0.00793457,0.00772095,
578,-0.00732422,0.00777588,
580,-0.00671387,0.00773315,
582,-0.00915527,0.00774536,
584,-0.00854492,0.00774536,
586,0.0012207,0.00767822,
588,-0.0158691,0.0078064,
590,-0.00671387,0.00785522,
592,-0.00244141,0.00775757,
594,-0.00915527,0.00772095,
596,-0.00488281,0.00775757,
598,-0.0109863,0.00779419,
600,-0.00732422,0.00777588,
602,-0.010376,0.00779419,
604,-0.00427246,0.00776367,
606,-0.00854492,0.00779419,
608,-0.010376,0.00783081,
610,-0.00854492,0.00783691,
612,-0.0109863,0.00790405,
614,-0.00915527,0.00789185,
616,-0.00793457,0.00792847,
618,-0.0109863,0.00794678,
620,-0.00976563,0.00796509,
622,-0.00976563,0.0079895,
624,-0.010376,0.00802002,
626,-0.012207,0.00807495,
628,-0.0109863,0.00812988,
630,-0.00976563,0.00822144,
632,-0.00976563,0.00820313,
634,-0.00427246,0.00817871,
636,-0.0152588,0.00827637,
638,-0.00732422,0.00825806,
640,-0.00610352,0.00823364,
642,-0.00915527,0.00823364,
644,-0.010376,0.00826416,
646,-0.00732422,0.00825806,
648,-0.012207,0.00834351,
650,-0.00915527,0.00830078,
652,-0.00732422,0.0083252,
654,-0.00854492,0.00836182,
656,-0.010376,0.00844116,
658,-0.010376,0.00843506,
660,-0.00793457,0.00844727,
662,-0.0115967,0.0085083,
664,-0.00549316,0.00848389,
666,-0.0109863,0.00852661,
668,-0.00915527,0.00854492,
670,-0.00854492,0.00855713,
672,-0.00610352,0.00853882,
674,-0.00915527,0.00855103,
676,-0.00488281,0.0085144,
678,-0.00732422,0.0085083,
680,-0.00488281,0.00847168,
682,-0.00610352,0.00845337,
684,-0.00793457,0.00844116,
686,-0.0012207,0.00838623,
688,-0.00793457,0.00836792,
690,-0.0109863,0.00844116,
692,-0.00488281,0.00836182,
694,-0.00915527,0.00834351,
696,-0.00915527,0.00836182,
698,-0.00915527,0.00839844,
700,-0.00976563,0.00844116,
702,-0.00549316,0.00827026,
704,-0.0115967,0.00830078,
706,-0.00427246,0.00824585,
708,-0.00610352,0.00817261,
710,-0.0170898,0.00830688,
712,-0.00549316,0.00828857,
714,-0.00854492,0.00829468,
716,-0.00671387,0.00827026,
718,-0.00976563,0.00828247,
720,-0.00915527,0.00829468,
722,-0.00366211,0.00825195,
724,-0.00427246,0.00822754,
726,-0.012207,0.00823975,
728,-0.00549316,0.00819702,
730,-0.00793457,0.00819702,
732,-0.00366211,0.0081604,
734,-0.00976563,0.0081543,
736,-0.0109863,0.00817871,
738,-0.00793457,0.0081665,
740,-0.00976563,0.00818481,
742,-0.00793457,0.00817871,
744,-0.00610352,0.00817261,
746,-0.00976563,0.00820313,
748,-0.00732422,0.00819092,
750,-0.00610352,0.00817871,
752,-0.00732422,0.0081665,
754,-0.00793457,0.00817871,
756,-0.00610352,0.0081665,
758,-0.00671387,0.0081543,
760,-0.00732422,0.00811768,
762,-0.00671387,0.00814819,
764,-0.00793457,0.00814209,
766,-0.00671387,0.0081543,
768,-0.00671387,0.00814209,
770,-0.00793457,0.0081604,
772,-0.00671387,0.00814819,
774,-0.00854492,0.0081604,
776,-0.00671387,0.00814819,
778,-0.00793457,0.0081543,
780,-0.00732422,0.0081604,
782,-0.00366211,0.00810547,
784,-0.0109863,0.00812988,
786,-0.00488281,0.0081665,
788,-0.00427246,0.00805054,
790,-0.00793457,0.00806274,
792,-0.00732422,0.00811157,
794,-0.00610352,0.00808105,
796,-0.0109863,0.00814209,
798,-0.00366211,0.00806885,
800,-0.00671387,0.00806274,
802,-0.010376,0.00806274,
804,-0.00793457,0.00809937,
806,-0.00549316,0.00806885,
808,-0.00915527,0.00805664,
810,-0.0128174,0.00809937,
812,-0.00610352,0.00805054,
814,-0.00976563,0.00805664,
816,0,0.00797729,
818,-0.012207,0.0079895,
820,-0.0152588,0.00804443,
822,-0.00671387,0.00801392,
824,-0.00366211,0.00794678,
826,-0.00793457,0.00790405,
828,-0.00610352,0.00785522,
830,-0.00732422,0.00783081,
832,-0.00793457,0.0078125,
834,-0.00610352,0.00783081,
836,-0.00732422,0.00775146,
838,-0.00610352,0.00773926,
840,-0.00854492,0.00776367,
842,-0.00793457,0.00775146,
844,-0.00915527,0.00773926,
846,-0.00793457,0.00774536,
848,-0.00854492,0.00770874,
850,-0.00610352,0.00767822,
852,-0.010376,0.00770874,
854,-0.00671387,0.00769043,
856,-0.0109863,0.00769653,
858,-0.00427246,0.0076355,
860,-0.010376,0.00765991,
862,-0.010376,0.00764771,
864,-0.00793457,0.00767212,
866,-0.0128174,0.00769043,
868,-0.00793457,0.00767822,
870,-0.0109863,0.00770264,
872,-0.00976563,0.00773926,
874,-0.00915527,0.00773926,
876,-0.00854492,0.00777588,
878,-0.00732422,0.00777588,
880,-0.00732422,0.00780029,
882,-0.00610352,0.00780029,
884,-0.00793457,0.00780029,
886,-0.00610352,0.00784912,
888,-0.00549316,0.00782471,
890,-0.00671387,0.00778198,
892,-0.00671387,0.00780029,
894,-0.00732422,0.00778198,
896,-0.00732422,0.00776367,
898,-0.00793457,0.00775146,
900,-0.00732422,0.00772705,
902,-0.00549316,0.00772705,
904,-0.00610352,0.00767212,
906,-0.010376,0.00773315,
908,-0.00549316,0.00772705,
910,-0.00488281,0.00760498,
912,-0.00915527,0.0076416,
914,-0.00854492,0.0076416,
916,-0.00732422,0.00764771,
918,-0.00854492,0.0076355,
920,-0.00976563,0.0076416,
922,-0.00915527,0.00769653,
924,-0.00488281,0.00770264,
926,-0.0109863,0.00769043,
928,-0.010376,0.00773926,
930,-0.00732422,0.00773315,
932,-0.00549316,0.00775146,
934,-0.0146484,0.00780029,
936,-0.00610352,0.00775146,
938,-0.00610352,0.00773315,
940,-0.00488281,0.00768433,
942,-0.0128174,0.00773315,
944,-0.00793457,0.00775146,
946,-0.00549316,0.00770874,
948,-0.00671387,0.00770264,
950,-0.00854492,0.00772705,
952,-0.010376,0.00775757,
954,-0.010376,0.00778198,
956,-0.00671387,0.00778809,
958,-0.00854492,0.0078064,
960,-0.00976563,0.00783081,
962,-0.00854492,0.00784912,
964,-0.00732422,0.00784302,
966,-0.00793457,0.00785522,
968,-0.00671387,0.00785522,
970,-0.00854492,0.00786133,
972,-0.00793457,0.00787354,
974,-0.0115967,0.00790405,
976,-0.00183105,0.00785522,
978,-0.00915527,0.00786743,
980,-0.0115967,0.00791016,
982,-0.00427246,0.00791626,
984,-0.00549316,0.00786133,
986,-0.00793457,0.00789185,
988,-0.00671387,0.00791626,
990,-0.00671387,0.00790405,
992,-0.00610352,0.00789185,
994,-0.00366211,0.00786743,
996,-0.012207,0.00787964,
998,-0.00671387,0.00791016,
1000,-0.00671387,0.00791016,
1002,-0.00610352,0.00786743,
1004,-0.00732422,0.00786133,
1006,-0.00549316,0.00786133,
1008,-0.00244141,0.00779419,
1010,-0.00915527,0.00775757,
1012,-0.00244141,0.00772095,
1014,-0.00610352,0.00768433,
1016,-0.00427246,0.00772705,
1018,-0.00366211,0.0076416,
1020,-0.00671387,0.00755615,
1022,-0.00549316,0.00754395,
1024,-0.00854492,0.00759277,
1026,-0.00488281,0.00756226,
1028,-0.00366211,0.00753784,
1030,-0.00671387,0.00753174,
1032,-0.00549316,0.00750732,
1034,-0.00732422,0.00751953,
1036,-0.00305176,0.00747681,
1038,-0.00610352,0.00747681,
1040,-0.00671387,0.0074585,
1042,-0.00244141,0.00740356,
1044,-0.00793457,0.00739136,
1046,-0.00366211,0.00734863,
1048,-0.00244141,0.0072876,
1050,-0.0115967,0.00734253,
1052,-0.00488281,0.0072876,
1054,-0.00488281,0.00726929,
1056,-0.00793457,0.00723877,
1058,-0.00549316,0.00725098,
1060,-0.00549316,0.00720215,
1062,-0.00366211,0.00713501,
1064,-0.00854492,0.00714111,
1066,-0.00610352,0.00707397,
1068,-0.00305176,0.00702515,
1070,-0.00793457,0.00699463,
1072,-0.0012207,0.00690918,
1074,-0.00549316,0.00687256,
1076,-0.0128174,0.00691528,
1078,-0.00488281,0.00689087,
1080,-0.00793457,0.00689697,
1082,-0.00610352,0.00689697,
1084,-0.00793457,0.00689697,
1086,-0.00671387,0.00690308,
1088,-0.00610352,0.00690918,
1090,-0.00671387,0.00690918,
1092,-0.00610352,0.00690308,
1094,-0.00610352,0.00689087,
1096,-0.00732422,0.00689087,
1098,-0.00976563,0.00690918,
1100,-0.00671387,0.00690308,
1102,-0.00854492,0.00693359,
1104,-0.00976563,0.00697021,
1106,-0.00854492,0.0069519,
1108,-0.00671387,0.00696411,
1110,-0.0109863,0.00702515,
1112,-0.00976563,0.00703125,
1114,-0.00610352,0.00700684,
1116,-0.00915527,0.00702515,
1118,-0.00610352,0.00700073,
1120,-0.00244141,0.00692749,
1122,-0.0146484,0.00698242,
1124,-0.00427246,0.00697632,
1126,-0.00671387,0.00693359,
1128,-0.00671387,0.00689697,
1130,-0.00793457,0.00690308,
1132,-0.0109863,0.00695801,
1134,-0.00732422,0.00688477,
1136,-0.00488281,0.00687256,
1138,-0.00671387,0.00687866,
1140,-0.00793457,0.00690918,
1142,-0.00610352,0.00684204,
1144,-0.00610352,0.00682373,
1146,-0.00915527,0.00686035,
1148,-0.00488281,0.00684204,
1150,-0.010376,0.00686035,
1152,-0.00854492,0.00684204,
1154,-0.012207,0.00686035,
1156,-0.00671387,0.00686035,
1158,-0.00793457,0.00685425,
1160,-0.0134277,0.00689087,
1162,-0.00183105,0.00682373,
1164,-0.0115967,0.00686646,
1166,-0.00915527,0.00687866,
1168,-0.00671387,0.00687866,
1170,-0.00671387,0.00686035,
1172,-0.00427246,0.00682373,
1174,-0.0164795,0.00687256,
1176,-0.00854492,0.0069397,
1178,-0.00549316,0.00690308,
1180,-0.00793457,0.00686646,
1182,-0.00549316,0.00687866,
1184,-0.0115967,0.0069397,
1186,-0.00488281,0.00690918,
1188,-0.00732422,0.00691528,
1190,-0.00488281,0.00689697,
1192,-0.00427246,0.00687866,
1194,-0.00671387,0.00690918,
1196,-0.00305176,0.00681763,
1198,-0.00976563,0.00684814,
1200,-0.00610352,0.00684204,
1202,-0.00244141,0.00680542,
1204,-0.00854492,0.00681763,
1206,-0.010376,0.00686646,
1208,-0.00183105,0.00686035,
1210,-0.00732422,0.00684204,
1212,-0.00610352,0.00687866,
1214,-0.00793457,0.00689697,
1216,-0.00488281,0.00690308,
1218,-0.00732422,0.0069397,
1220,-0.00793457,0.0069519,
1222,-0.00732422,0.00697021,
1224,-0.00671387,0.0069519,
1226,-0.00793457,0.00698242,
1228,-0.00793457,0.00702515,
1230,-0.00732422,0.00703125,
1232,-0.00854492,0.00706177,
1234,-0.00976563,0.00708618,
1236,-0.00854492,0.00714111,
1238,-0.00488281,0.00712891,
1240,-0.00854492,0.00714722,
1242,-0.00915527,0.00721436,
1244,-0.00793457,0.00721436,
1246,-0.00793457,0.00725708,
1248,-0.00793457,0.00731201,
1250,-0.00793457,0.00727539,
1252,-0.00732422,0.0072998,
1254,-0.00976563,0.00734863,
1256,-0.00732422,0.00734253,
1258,0.000610352,0.0072937,
1260,-0.0146484,0.00738525,
1262,-0.00610352,0.00740967,
1264,-0.010376,0.00742798,
1266,-0.00305176,0.00739746,
1268,-0.00793457,0.00744629,
1270,-0.0115967,0.00748291,
1272,-0.00793457,0.00755005,
1274,-0.00671387,0.00756226,
1276,-0.00732422,0.00750732,
1278,-0.00793457,0.00753784,
1280,-0.00732422,0.00753174,
1282,-0.00671387,0.00753784,
1284,-0.00366211,0.00749512,
1286,-0.00854492,0.00751343,
1288,-0.00976563,0.00755005,
1290,-0.00854492,0.00756836,
1292,-0.00305176,0.00753784,
1294,-0.00671387,0.00754395,
1296,-0.0128174,0.00759888,
1298,-0.00793457,0.00758057,
1300,-0.00793457,0.00759277,
1302,-0.010376,0.00761108,
1304,-0.00549316,0.00756836,
1306,-0.00793457,0.00756226,
1308,-0.00915527,0.00758667,
1310,-0.00976563,0.00757446,
1312,-0.00793457,0.00755615,
1314,-0.010376,0.00759888,
1316,-0.00793457,0.00758667,
1318,-0.00488281,0.00757446,
1320,-0.012207,0.00767212,
1322,-0.0128174,0.00765381,
1324,-0.00732422,0.00768433,
1326,-0.00366211,0.00765381,
1328,-0.012207,0.00770874,
1330,-0.00793457,0.00770874,
1332,-0.00854492,0.00768433,
1334,-0.00488281,0.00765991,
1336,-0.000610352,0.00761719,
1338,-0.0109863,0.00765991,
1340,-0.00610352,0.0076416,
1342,-0.00732422,0.00765381,
1344,-0.00610352,0.00765381,
1346,-0.00366211,0.00759888,
1348,-0.00488281,0.00759888,
1350,-0.0115967,0.00761108,
1352,-0.00915527,0.00761719,
1354,-0.00427246,0.00753784,
1356,-0.00671387,0.00753784,
1358,-0.00671387,0.00752563,
1360,-0.00305176,0.00742187,
1362,-0.0128174,0.00753174,
1364,-0.00366211,0.00745239,
1366,-0.00793457,0.00744019,
1368,-0.00732422,0.00744629,
1370,-0.010376,0.00748291,
1372,-0.00671387,0.00750732,
1374,-0.00854492,0.00742798,
1376,-0.00854492,0.00742798,
1378,-0.00671387,0.00744019,
1380,-0.00915527,0.00745239,
1382,-0.00915527,0.00748901,
1384,-0.00549316,0.00742798,
1386,-0.00854492,0.0074646,
1388,-0.00793457,0.0074707,
1390,-0.00671387,0.00748901,
1392,-0.00854492,0.00753174,
1394,-0.010376,0.00756836,
1396,-0.00671387,0.00760498,
1398,-0.010376,0.00761108,
1400,-0.00915527,0.0076416,
1402,-0.010376,0.00772095,
1404,-0.00915527,0.00772705,
1406,-0.010376,0.00772705,
1408,-0.0109863,0.0078186,
1410,-0.00976563,0.00784302,
1412,-0.00976563,0.00787964,
1414,-0.00610352,0.00786133,
1416,-0.0134277,0.00794678,
1418,-0.00915527,0.00796509,
1420,-0.00671387,0.00795288,
1422,-0.00610352,0.00794067,
1424,-0.0140381,0.00801392,
1426,-0.00793457,0.00801392,
1428,-0.0115967,0.00805054,
1430,-0.00793457,0.00805664,
1432,-0.00854492,0.00805664,
1434,-0.00610352,0.00802002,
1436,-0.00732422,0.00800781,
1438,-0.010376,0.00806274,
1440,-0.00610352,0.00803833,
1442,-0.0115967,0.00806274,
1444,-0.00427246,0.00802612,
1446,-0.00244141,0.00797119,
1448,-0.0115967,0.00800781,
1450,-0.00976563,0.00802612,
1452,-0.00793457,0.00803223,
1454,-0.00793457,0.00801392,
1456,-0.00793457,0.00802002,
1458,-0.00793457,0.00809326,
1460,-0.00793457,0.00802612,
1462,-0.00366211,0.00800171,
1464,-0.0140381,0.00803833,
1466,-0.00488281,0.00805664,
1468,-0.00793457,0.00805664,
1470,-0.00244141,0.00796509,
1472,-0.012207,0.00800781,
1474,-0.00732422,0.00801392,
1476,-0.00915527,0.00803223,
1478,-0.00793457,0.00803223,
1480,-0.00793457,0.00803833,
1482,-0.00671387,0.00803833,
1484,-0.00671387,0.00806885,
1486,-0.00915527,0.00807495,
1488,-0.00793457,0.00805664,
1490,-0.00793457,0.00805054,
1492,-0.00549316,0.00807495,
1494,-0.00488281,0.00805664,
1496,-0.00671387,0.00799561,
1498,-0.00732422,0.0079895,
1500,-0.00244141,0.00793457,
1502,-0.00915527,0.00792236,
1504,-0.00610352,0.00792847,
1506,-0.00488281,0.00789795,
1508,-0.00549316,0.00786133,
1510,-0.00610352,0.00782471,
1512,-0.00915527,0.00783691,
1514,-0.00976563,0.00783081,
1516,-0.00671387,0.0078186,
1518,-0.00854492,0.00785522,
1520,-0.00793457,0.0078125,
1522,-0.00549316,0.00773926,
1524,-0.00427246,0.00770874,
1526,-0.0134277,0.0078064,
1528,-0.00732422,0.00775757,
1530,-0.00793457,0.00775757,
1532,-0.00366211,0.00770874,
1534,-0.00976563,0.00775757,
1536,-0.0109863,0.00786133,
1538,-0.00671387,0.0078186,
1540,-0.00854492,0.00784302,
1542,-0.00732422,0.00784302,
1544,-0.00793457,0.00786133,
1546,-0.00793457,0.00790405,
1548,-0.00854492,0.00794067,
1550,-0.00793457,0.00790405,
1552,-0.00793457,0.00789185,
1554,-0.00976563,0.00794678,
1556,-0.00305176,0.00791016,
1558,-0.00793457,0.00792236,
1560,-0.00976563,0.0079895,
1562,-0.00671387,0.00792847,
1564,-0.00671387,0.00795898,
1566,-0.0115967,0.00799561,
1568,-0.00671387,0.0079895,
1570,-0.010376,0.0079895,
1572,-0.0115967,0.00803833,
1574,-0.00610352,0.00801392,
1576,-0.0115967,0.00804443,
1578,-0.00732422,0.00805054,
1580,-0.00427246,0.00800171,
1582,-0.00671387,0.00797729,
1584,-0.00671387,0.0079895,
1586,-0.00915527,0.00799561,
1588,-0.0012207,0.00792847,
1590,-0.00427246,0.00790405,
1592,-0.0115967,0.00793457,
1594,-0.00671387,0.00789795,
1596,-0.00854492,0.00791626,
1598,-0.00976563,0.00791016,
1600,-0.00793457,0.00789795,
1602,-0.00549316,0.00784912,
1604,-0.00671387,0.00782471,
1606,-0.00549316,0.00777588,
1608,-0.0109863,0.00777588,
1610,-0.00305176,0.00770874,
1612,-0.00488281,0.00765991,
1614,-0.00732422,0.00767212,
1616,-0.00976563,0.0076355,
1618,-0.00427246,0.00758667,
1620,-0.00671387,0.00758667,
1622,-0.00610352,0.00758667,
1624,-0.012207,0.00756836,
1626,-0.00793457,0.00756836,
1628,-0.00488281,0.00750122,
1630,-0.00244141,0.00744629,
1632,-0.00915527,0.00745239,
1634,-0.0128174,0.00751953,
1636,-0.00732422,0.00751953,
1638,-0.00549316,0.0074707,
1640,-0.00793457,0.00748901,
1642,-0.00915527,0.0074646,
1644,-0.0115967,0.00753784,
1646,-0.00976563,0.00761108,
1648,-0.010376,0.00759888,
1650,-0.00915527,0.00759277,
1652,-0.010376,0.00761719,
1654,-0.0109863,0.00764771,
1656,-0.00976563,0.00766602,
1658,-0.00671387,0.00765381,
1660,-0.00915527,0.00766602,
1662,-0.00610352,0.00769043,
1664,-0.00915527,0.0076416,
1666,-0.00976563,0.00769043,
1668,-0.00732422,0.00768433,
1670,-0.00915527,0.00775146,
1672,-0.00976563,0.00772705,
1674,-0.00488281,0.00770264,
1676,-0.00976563,0.00770874,
1678,-0.010376,0.00773315,
1680,-0.00793457,0.00773315,
1682,-0.00854492,0.00775146,
1684,-0.00671387,0.00775146,
1686,-0.00488281,0.00770874,
1688,-0.010376,0.00773315,
1690,-0.00671387,0.00772095,
1692,-0.00671387,0.00773315,
1694,-0.00610352,0.00774536,
1696,-0.00488281,0.00772705,
1698,-0.00793457,0.00773315,
1700,-0.00427246,0.00775146,
1702,-0.00793457,0.00773926,
1704,-0.00854492,0.00776367,
1706,-0.00732422,0.00778809,
1708,-0.00732422,0.0078064,
1710,-0.00732422,0.0078186,
1712,-0.00915527,0.0078186,
1714,-0.00854492,0.0078064,
1716,-0.00976563,0.00783691,
1718,-0.010376,0.00785522,
1720,0.00244141,0.00780029,
1722,-0.00793457,0.00782471,
1724,-0.00732422,0.00785522,
1726,-0.00854492,0.0078064,
1728,-0.00427246,0.00777588,
1730,-0.00549316,0.00775146,
1732,-0.00549316,0.00776978,
1734,-0.00610352,0.00773315,
1736,-0.00854492,0.00770874,
1738,-0.00366211,0.00767822,
1740,-0.00732422,0.00766602,
1742,-0.00366211,0.00762939,
1744,-0.00976563,0.00764771,
1746,-0.00305176,0.00759888,
1748,-0.00671387,0.00758057,
1750,-0.00488281,0.00755005,
1752,-0.00915527,0.00756226,
1754,-0.00732422,0.00753784,
1756,-0.00732422,0.00758057,
1758,-0.00854492,0.00758667,
1760,-0.00793457,0.00756836,
1762,-0.00854492,0.00758667,
1764,-0.0109863,0.00762939,
1766,-0.00671387,0.00758057,
1768,-0.00732422,0.00758667,
1770,-0.00793457,0.00756226,
1772,-0.00976563,0.00754395,
1774,-0.00915527,0.00757446,
1776,-0.00915527,0.00755005,
1778,-0.00854492,0.00756226,
1780,-0.010376,0.00762329,
1782,-0.0109863,0.00766602,
1784,-0.00976563,0.00769653,
1786,-0.00976563,0.00770264,
1788,-0.00915527,0.00778198,
1790,-0.0134277,0.00787354,
1792,-0.00976563,0.00785522,
1794,-0.00854492,0.00787354,
1796,-0.00915527,0.00787964,
1798,-0.0109863,0.00789185,
1800,-0.010376,0.00791626,
1802,-0.00549316,0.00791626,
1804,-0.0115967,0.00796509,
1806,-0.00854492,0.00799561,
1808,-0.00610352,0.00794678,
1810,-0.00793457,0.00799561,
1812,-0.00671387,0.00801392,
1814,-0.00915527,0.00803223,
1816,-0.00732422,0.00800781,
1818,-0.00366211,0.00800171,
1820,-0.00915527,0.00802612,
1822,-0.00793457,0.00804443,
1824,-0.00976563,0.00802002,
1826,-0.00549316,0.00799561,
1828,-0.00915527,0.00803833,
1830,-0.00610352,0.00807495,
1832,-0.0115967,0.00809937,
1834,-0.00854492,0.00805664,
1836,-0.00549316,0.00803833,
1838,-0.00244141,0.00800781,
1840,-0.0158691,0.00808716,
1842,-0.00244141,0.00802002,
1844,-0.00793457,0.0079834,
1846,-0.00610352,0.00794678,
1848,-0.00244141,0.00786743,
1850,-0.0140381,0.00791626,
1852,-0.00915527,0.00790405,
1854,-0.00671387,0.00786133,
1856,-0.00366211,0.00780029,
1858,-0.00976563,0.00783081,
1860,-0.00854492,0.00782471,
1862,-0.00854492,0.00784912,
1864,-0.00732422,0.00783081,
1866,-0.00549316,0.00778809,
1868,-0.00549316,0.00776978,
1870,-0.010376,0.00778198,
1872,-0.00366211,0.00772095,
1874,-0.00854492,0.00775757,
1876,-0.00427246,0.00770264,
1878,-0.00671387,0.00766602,
1880,-0.00427246,0.00762939,
1882,-0.00732422,0.00761719,
1884,-0.00732422,0.00762329,
1886,-0.00305176,0.00760498,
1888,-0.00793457,0.00758057,
1890,-0.00793457,0.00759277,
1892,-0.00488281,0.00757446,
1894,-0.00793457,0.00759277,
1896,-0.00671387,0.00761108,
1898,-0.00671387,0.00759888,
1900,-0.00732422,0.00762939,
1902,-0.00549316,0.00760498,
1904,-0.00915527,0.00761108,
1906,-0.00610352,0.00759888,
1908,-0.00732422,0.00759888,
1910,-0.00427246,0.00756836,
1912,-0.00671387,0.00754395,
1914,-0.00549316,0.00751343,
1916,-0.00732422,0.00748901,
1918,-0.00366211,0.00742187,
1920,-0.00732422,0.0074707,
1922,-0.00488281,0.00744019,
1924,-0.00427246,0.00740967,
1926,-0.00976563,0.00742187,
1928,-0.00732422,0.00745239,
1930,-0.00854492,0.00748291,
1932,-0.00976563,0.00752563,
1934,-0.00793457,0.00754395,
1936,-0.00915527,0.00755005,
1938,-0.00793457,0.00759277,
1940,-0.0109863,0.00762939,
1942,-0.010376,0.00769653,
1944,-0.00915527,0.00769043,
1946,-0.00671387,0.00772705,
1948,-0.00854492,0.00774536,
1950,-0.00793457,0.00777588,
1952,-0.0115967,0.00780029,
1954,-0.00915527,0.0078186,
1956,-0.00915527,0.00783691,
1958,-0.00427246,0.00779419,
1960,-0.0109863,0.00782471,
1962,-0.00732422,0.0078125,
1964,-0.00915527,0.00779419,
1966,-0.00854492,0.0078125,
1968,-0.00183105,0.00775757,
1970,-0.010376,0.00778198,
1972,-0.00732422,0.00775757,
1974,-0.0109863,0.00777588,
1976,-0.00854492,0.00776978,
1978,-0.00549316,0.00773926,
1980,-0.0128174,0.00776367,
1982,-0.00793457,0.00773315,
1984,-0.00854492,0.00772095,
1986,-0.00915527,0.00771484,
1988,-0.00793457,0.00770264,
1990,-0.00976563,0.00766602,
1992,-0.00854492,0.00765381,
1994,-0.00854492,0.00765381,
1996,-0.00732422,0.0076355,
1998,-0.00854492,0.00761108,
2000,-0.00671387,0.00757446,
2002,-0.00915527,0.00761108,
2004,-0.00793457,0.00757446,
2006,-0.00549316,0.00754395,
2008,-0.00793457,0.00756226,
2010,-0.00305176,0.00751343,
2012,-0.010376,0.00755005,
2014,-0.00671387,0.00752563,
2016,-0.00915527,0.00754395,
2018,-0.00488281,0.00755615,
2020,-0.010376,0.00756836,
2022,-0.00671387,0.00755615,
2024,-0.00915527,0.00755005,
2026,-0.00976563,0.00759277,
2028,-0.00793457,0.00758057,
2030,-0.00854492,0.00760498,
2032,-0.00915527,0.00758057,
2034,-0.010376,0.00759888,
2036,-0.00671387,0.00761108,
2038,-0.00793457,0.00766602,
2040,-0.00976563,0.00760498,
2042,-0.00976563,0.00767822,
2044,-0.012207,0.00772095,
2046,-0.00549316,0.00771484,
2048,-0.00854492,0.00777588,
2050,-0.010376,0.00773926,
2052,-0.00976563,0.00774536,
2054,-0.010376,0.00778198,
2056,-0.00793457,0.00782471,
2058,-0.00549316,0.00778198,
2060,-0.0109863,0.0078064,
2062,-0.00854492,0.0078064,
2064,-0.00976563,0.00783081,
2066,-0.00366211,0.0078125,
2068,-0.0134277,0.00789185,
2070,-0.0115967,0.00790405,
2072,-0.00366211,0.00790405,
2074,-0.0134277,0.00795288,
2076,-0.00610352,0.00797119,
2078,-0.010376,0.00800781,
2080,-0.00915527,0.00805664,
2082,-0.00549316,0.00803833,
2084,-0.012207,0.00808716,
2086,-0.00793457,0.00813599,
2088,-0.0134277,0.00819092,
2090,-0.00610352,0.00817261,
2092,-0.00915527,0.00821533,
2094,-0.0109863,0.00824585,
2096,-0.0128174,0.00830688,
2098,-0.00366211,0.00827637,
2100,-0.012207,0.0083252,
2102,-0.00854492,0.00835571,
2104,-0.00671387,0.0083313,
2106,-0.00915527,0.00836182,
2108,-0.00854492,0.00837402,
2110,-0.00793457,0.00841064,
2112,-0.00854492,0.00842896,
2114,-0.00793457,0.00845337,
2116,-0.010376,0.00848389,
2118,-0.00549316,0.0085022,
2120,-0.00915527,0.00852051,
2122,-0.00976563,0.00856934,
2124,-0.00732422,0.00859985,
2126,-0.010376,0.00860596,
2128,-0.00549316,0.00858765,
2130,-0.012207,0.00862427,
2132,-0.00854492,0.00861206,
2134,-0.00854492,0.00861816,
2136,-0.00976563,0.00862427,
2138,-0.00793457,0.00862427,
2140,-0.010376,0.00861816,
2142,-0.00915527,0.00860596,
2144,-0.00854492,0.00859985,
2146,-0.010376,0.00863647,
2148,-0.00976563,0.00864868,
2150,-0.00793457,0.00864868,
2152,-0.0115967,0.00864868,
2154,-0.0128174,0.0086853,
2156,-0.00793457,0.0086731,
2158,-0.00976563,0.00872803,
2160,-0.00610352,0.0086792,
2162,-0.010376,0.00870972,
2164,-0.0158691,0.00877686,
2166,-0.00854492,0.00877686,
2168,-0.00488281,0.00880737,
2170,-0.0128174,0.00883179,
2172,-0.010376,0.0088623,
2174,-0.010376,0.0088562,
2176,-0.0115967,0.00888672,
2178,-0.00793457,0.00891113,
2180,-0.0109863,0.00889282,
2182,-0.000610352,0.00881958,
2184,-0.0109863,0.00884399,
2186,-0.00915527,0.00884399,
2188,-0.00305176,0.00879517,
2190,-0.00732422,0.00877075,
2192,-0.00610352,0.00874634,
2194,-0.00610352,0.00872192,
2196,-0.00610352,0.00870972,
2198,-0.00366211,0.00866089,
2200,-0.00427246,0.00863647,
2202,-0.00305176,0.00857544,
2204,-0.00915527,0.00858765,
2206,-0.00488281,0.00858154,
2208,-0.00549316,0.00855713,
2210,-0.00549316,0.00858154,
2212,-0.00671387,0.00854492,
2214,-0.00671387,0.00854492,
2216,-0.00854492,0.00853882,
2218,-0.00732422,0.00856323,
2220,-0.00671387,0.00852661,
2222,-0.00610352,0.00852051,
2224,-0.00610352,0.00848999,
2226,-0.00732422,0.00846558,
2228,-0.00488281,0.00843506,
2230,-0.00854492,0.00843506,
2232,-0.00793457,0.00842285,
2234,-0.00549316,0.00837402,
2236,-0.00732422,0.00838013,
2238,-0.00549316,0.00835571,
2240,-0.00854492,0.00834351,
2242,-0.00976563,0.00834351,
2244,-0.00854492,0.00830688,
2246,-0.00854492,0.0083374,
2248,-0.000610352,0.00825806,
2250,-0.00732422,0.00822754,
2252,-0.00854492,0.00821533,
2254,-0.00305176,0.00814209,
2256,-0.00305176,0.00809326,
2258,-0.000610352,0.00804443,
2260,-0.00854492,0.00802002,
2262,-0.00488281,0.0079834,
2264,-0.00366211,0.00792236,
2266,-0.00549316,0.00794067,
2268,-0.00549316,0.00786133,
2270,-0.00183105,0.00776367,
2272,-0.00793457,0.0078064,
2274,-0.00793457,0.00775146,
2276,-0.00610352,0.00775146,
2278,-0.00549316,0.00770264,
2280,-0.00671387,0.00767822,
2282,-0.00610352,0.00768433,
2284,-0.00793457,0.0076416,
2286,-0.00915527,0.00765381,
2288,-0.00183105,0.00753784,
2290,-0.010376,0.00758057,
2292,-0.00671387,0.00755615,
2294,-0.00549316,0.00750122,
2296,-0.00610352,0.00743408,
2298,-0.00793457,0.00747681,
2300,-0.00610352,0.00741577,
2302,-0.00793457,0.00740967,
2304,-0.00488281,0.00739136,
2306,-0.00854492,0.00738525,
2308,-0.00610352,0.00736084,
2310,-0.00671387,0.00734863,
2312,-0.00549316,0.00731812,
2314,-0.0115967,0.00735474,
2316,-0.00732422,0.00732422,
2318,-0.00488281,0.00731812,
2320,-0.00793457,0.00730591,
2322,-0.00793457,0.0072876,
2324,-0.00732422,0.0072876,
2326,-0.00427246,0.00722656,
2328,-0.00610352,0.00723267,
2330,-0.00854492,0.00719604,
2332,-0.00854492,0.00719604,
2334,-0.00549316,0.00716553,
2336,-0.00732422,0.00714111,
2338,-0.00610352,0.0071228,
2340,-0.00854492,0.00710449,
2342,-0.00793457,0.00709229,
2344,-0.00854492,0.00709229,
2346,-0.00671387,0.00705566,
2348,-0.00366211,0.00699463,
2350,-0.00793457,0.00699463,
2352,-0.00488281,0.00692749,
2354,-0.00976563,0.00689697,
2356,-0.00610352,0.00687866,
2358,-0.00366211,0.00681763,
2360,-0.00549316,0.00681152,
2362,-0.00793457,0.00678711,
2364,-0.00915527,0.00671997,
2366,-0.00671387,0.00670166,
2368,-0.00671387,0.00671997,
2370,-0.00915527,0.00668335,
2372,-0.0115967,0.00669556,
2374,-0.00549316,0.00664673,
2376,-0.0109863,0.00664063,
2378,-0.0109863,0.00667114,
2380,-0.00976563,0.00665894,
2382,-0.00671387,0.00671997,
2384,-0.00549316,0.00666504,
2386,-0.00793457,0.00665283,
2388,-0.010376,0.00672607,
2390,-0.00488281,0.00670166,
2392,-0.00610352,0.00670166,
2394,-0.00488281,0.00668945,
2396,-0.00915527,0.00671997,
2398,-0.00549316,0.00673828,
2400,-0.00549316,0.00675049,
2402,-0.00549316,0.0067749,
2404,-0.00488281,0.00673218,
2406,-0.010376,0.00678711,
2408,-0.00671387,0.00679932,
2410,-0.00732422,0.00681763,
2412,-0.00671387,0.00681763,
2414,-0.00976563,0.00684814,
2416,-0.00793457,0.00684204,
2418,-0.00915527,0.00686035,
2420,-0.00854492,0.00687866,
2422,-0.00854492,0.00690308,
2424,-0.00854492,0.00692749,
2426,-0.00305176,0.00688477,
2428,-0.00976563,0.00693359,
2430,-0.0128174,0.00697632,
2432,-0.00854492,0.00698242,
2434,-0.00610352,0.00698853,
2436,-0.0109863,0.00702515,
2438,-0.00915527,0.00706177,
2440,-0.0134277,0.0071106,
2442,-0.00976563,0.0071106,
2444,-0.00793457,0.00710449,
2446,-0.00915527,0.0071106,
2448,-0.00610352,0.00716553,
2450,-0.00976563,0.00718994,
2452,-0.010376,0.00720825,
2454,-0.00488281,0.00722656,
2456,-0.0115967,0.00731201,
2458,-0.00549316,0.00736084,
2460,-0.0109863,0.00738525,
2462,-0.00732422,0.00740967,
2464,-0.00915527,0.0074646,
2466,-0.010376,0.00751343,
2468,-0.00915527,0.00755005,
2470,-0.00854492,0.00761719,
2472,-0.00793457,0.00761719,
2474,-0.012207,0.00765991,
2476,-0.00915527,0.00769043,
2478,-0.00427246,0.00767822,
2480,-0.012207,0.00773315,
2482,-0.010376,0.00777588,
2484,-0.00976563,0.00779419,
2486,-0.00732422,0.00777588,
2488,-0.00976563,0.00785522,
2490,-0.0146484,0.00789795,
2492,-0.0109863,0.00794067,
2494,-0.010376,0.0079895,
2496,-0.00549316,0.0079834,
2498,-0.00488281,0.00795288,
2500,-0.0195313,0.00808716,
2502,-0.00610352,0.00806885,
2504,-0.00915527,0.00811157,
2506,-0.00549316,0.00808105,
2508,-0.010376,0.00812378,
2510,-0.00732422,0.00812988,
2512,-0.0115967,0.00819092,
2514,-0.00915527,0.0081665,
2516,-0.00671387,0.0081604,
2518,-0.00549316,0.0081665,
2520,-0.00793457,0.0081665,
2522,-0.00488281,0.00813599,
2524,-0.00854492,0.00814819,
2526,-0.00854492,0.00819092,
2528,-0.00366211,0.0081665,
2530,-0.00793457,0.0081604,
2532,-0.00793457,0.0081543,
2534,-0.00732422,0.00817261,
2536,-0.00793457,0.00817871,
2538,-0.00976563,0.00821533,
2540,-0.00915527,0.00822144,
2542,-0.00915527,0.00823364,
2544,-0.00732422,0.00822144,
2546,-0.010376,0.00825806,
2548,-0.0115967,0.0083374,
2550,-0.0134277,0.00839233,
2552,-0.0012207,0.00835571,
2554,-0.00549316,0.00831299,
2556,-0.0134277,0.00838623,
2558,-0.00244141,0.00837402,
2560,-0.000610352,0.0083252,
2562,-0.00671387,0.00831299,
2564,-0.00183105,0.00823975,
2566,-0.00183105,0.00819092,
2568,-0.00732422,0.00819702,
2570,0.0012207,0.00811768,
2572,-0.00915527,0.00809326,
2574,-0.0109863,0.00814819,
2576,-0.00305176,0.00806885,
2578,-0.00732422,0.00803223,
2580,-0.00915527,0.00802612,
2582,-0.00549316,0.00801392,
2584,-0.00671387,0.00802612,
2586,-0.00976563,0.00804443,
2588,-0.0012207,0.00795288,
2590,-0.012207,0.00802612,
2592,-0.00305176,0.00799561,
2594,-0.00610352,0.00800781,
2596,-0.00305176,0.00794678,
2598,-0.012207,0.00801392,
2600,-0.00915527,0.00805054,
2602,-0.00732422,0.00806885,
2604,-0.0109863,0.00812988,
2606,0,0.00802612,
2608,-0.0115967,0.00807495,
2610,-0.00976563,0.00809937,
2612,-0.00915527,0.00812378,
2614,-0.00793457,0.00810547,
2616,-0.00549316,0.00808105,
2618,-0.00732422,0.00806274,
2620,-0.0146484,0.00812378,
2622,-0.00854492,0.00812378,
2624,-0.00610352,0.00809937,
2626,-0.0128174,0.00819702,
2628,-0.00305176,0.00812988,
2630,-0.010376,0.00810547,
2632,-0.00854492,0.00810547,
2634,-0.00427246,0.00808716,
2636,-0.00427246,0.00802002,
2638,-0.00671387,0.00799561,
2640,-0.00488281,0.00791016,
2642,-0.00793457,0.00789185,
2644,-0.00183105,0.00783081,
2646,-0.00732422,0.0078125,
2648,-0.00549316,0.0078064,
2650,-0.00427246,0.00775146,
2652,-0.00854492,0.00773315,
2654,0,0.00768433,
2656,-0.00915527,0.00765991,
2658,-0.00549316,0.00765991,
2660,-0.00671387,0.00761719,
2662,-0.00610352,0.00760498,
2664,-0.00610352,0.00757446,
2666,-0.00793457,0.00755005,
2668,-0.00671387,0.00752563,
2670,-0.00793457,0.00751953,
2672,-0.00915527,0.00753174,
2674,-0.00915527,0.00750122,
2676,-0.00976563,0.00750732,
2678,-0.00305176,0.00749512,
2680,-0.00915527,0.0074646,
2682,-0.00793457,0.00744019,
2684,-0.00854492,0.00742798,
2686,-0.00671387,0.00742187,
2688,-0.00793457,0.00740356,
2690,-0.00732422,0.00733032,
2692,-0.010376,0.00732422,
2694,-0.00549316,0.00727539,
2696,-0.00854492,0.00730591,
2698,-0.00915527,0.00734863,
2700,-0.00854492,0.00723877,
2702,-0.00427246,0.00722046,
2704,-0.00671387,0.00719604,
2706,-0.00610352,0.00720215,
2708,-0.00427246,0.00714111,
2710,-0.00305176,0.00709839,
2712,-0.00610352,0.00704346,
2714,-0.00488281,0.00700073,
2716,-0.00671387,0.00700073,
2718,-0.00366211,0.00698242,
2720,-0.00732422,0.00697632,
2722,-0.00244141,0.0069519,
2724,-0.00549316,0.00692139,
2726,-0.00671387,0.00690308,
2728,-0.010376,0.00697021,
2730,-0.00549316,0.0069458,
2732,-0.00671387,0.00693359,
2734,-0.00610352,0.00692139,
2736,-0.00488281,0.00689087,
2738,-0.00366211,0.00682983,
2740,-0.00915527,0.00682983,
2742,-0.00854492,0.00682373,
2744,-0.0109863,0.00686035,
2746,-0.00244141,0.00678101,
2748,-0.00976563,0.0067627,
2750,-0.0128174,0.00675659,
2752,-0.0115967,0.00686035,
2754,-0.00915527,0.00689697,
2756,-0.00915527,0.00685425,
2758,-0.00793457,0.00690918,
2760,-0.00915527,0.00699463,
2762,-0.00793457,0.00700684,
2764,-0.00488281,0.00703735,
2766,-0.00854492,0.00710449,
2768,-0.0012207,0.00704346,
2770,-0.0109863,0.00714111,
2772,-0.00671387,0.0071167,
2774,-0.00671387,0.00707397,
2776,-0.00793457,0.0071228,
2778,-0.00427246,0.00709229,
2780,-0.0128174,0.00712891,
2782,-0.00366211,0.0071106,
2784,-0.00732422,0.0071167,
2786,-0.00610352,0.00708008,
2788,-0.0146484,0.00721436,
2790,-0.00549316,0.00714722,
2792,-0.00427246,0.00715942,
2794,-0.00305176,0.00712891,
2796,-0.012207,0.00722046,
2798,-0.00671387,0.00716553,
2800,-0.00488281,0.0071228,
2802,-0.00610352,0.0071106,
2804,-0.00915527,0.00709229,
2806,-0.00732422,0.00716553,
2808,-0.00732422,0.0071228,
2810,-0.00732422,0.00709839,
2812,-0.00610352,0.00706787,
2814,-0.00732422,0.00706177,
2816,-0.00732422,0.00708008,
2818,-0.00488281,0.00705566,
2820,-0.00427246,0.0069519,
2822,-0.00549316,0.00692139,
2824,-0.0109863,0.00697021,
2826,-0.00427246,0.00688477,
2828,-0.00427246,0.00689697,
2830,-0.0109863,0.00690308,
2832,-0.00549316,0.00687256,
2834,-0.00671387,0.00689697,
2836,-0.00671387,0.00692139,
2838,-0.00732422,0.00692749,
2840,-0.00488281,0.00692749,
2842,-0.00732422,0.00692139,
2844,-0.00793457,0.00698242,
2846,-0.00854492,0.00699463,
2848,-0.00671387,0.00700684,
2850,-0.00793457,0.00704346,
2852,-0.00793457,0.00703735,
2854,-0.00915527,0.00712891,
2856,-0.00854492,0.0071228,
2858,-0.00549316,0.0071228,
2860,-0.00854492,0.00714111,
2862,0.000610352,0.00708618,
2864,-0.00244141,0.00704956,
2866,-0.020752,0.00717773,
2868,0.00366211,0.00714722,
2870,-0.00610352,0.00712891,
2872,-0.0109863,0.00714722,
2874,-0.00854492,0.00714111,
2876,-0.010376,0.00714722,
2878,-0.0115967,0.00723267,
2880,-0.00915527,0.00723267,
2882,-0.00610352,0.00721436,
2884,-0.00793457,0.00720825,
2886,-0.00915527,0.00723267,
2888,-0.00610352,0.00721436,
2890,-0.00549316,0.00719604,
2892,-0.00671387,0.00715942,
2894,-0.00610352,0.00716553,
2896,-0.0128174,0.00720825,
2898,-0.00305176,0.00714722,
2900,-0.00793457,0.00714111,
2902,-0.0109863,0.00720825,
2904,-0.00915527,0.00723267,
2906,-0.00976563,0.00726929,
2908,-0.00366211,0.00726318,
2910,-0.00427246,0.00727539,
2912,-0.0109863,0.00732422,
2914,-0.00549316,0.00733032,
2916,-0.00427246,0.00730591,
2918,-0.00732422,0.00734253,
2920,-0.010376,0.00737305,
2922,-0.0012207,0.00736084,
2924,-0.00854492,0.00739136,
2926,-0.0109863,0.00743408,
2928,-0.00549316,0.00738525,
2930,-0.00671387,0.00739746,
2932,-0.00854492,0.00741577,
2934,-0.00549316,0.00740967,
2936,-0.00732422,0.00743408,
2938,-0.00854492,0.00748291,
2940,-0.00915527,0.00748291,
2942,-0.0115967,0.00751343,
2944,-0.00915527,0.00749512,
2946,-0.00427246,0.00751343,
2948,-0.00915527,0.00750732,
2950,-0.00915527,0.0074707,
2952,-0.00366211,0.00739136,
2954,-0.0183105,0.00748291,
2956,-0.00183105,0.00740967,
2958,-0.00305176,0.00736084,
2960,-0.0115967,0.00738525,
2962,-0.00610352,0.00736694,
2964,-0.00976563,0.00741577,
2966,-0.00610352,0.00739136,
2968,-0.00488281,0.00742798,
2970,-0.00610352,0.00737915,
2972,-0.0109863,0.00742187,
2974,-0.00183105,0.00737305,
2976,-0.00671387,0.00736084,
2978,-0.00793457,0.00739746,
2980,-0.00549316,0.00732422,
2982,-0.00183105,0.00730591,
2984,-0.00549316,0.0072876,
2986,-0.00244141,0.00725098,
2988,-0.00366211,0.00714111,
2990,-0.00793457,0.00716553,
2992,-0.00366211,0.00715942,
2994,0.000610352,0.00713501,
2996,-0.00671387,0.00708008,
2998,-0.00732422,0.00708618,
3000,-0.00671387,0.00710449,
3002,-0.00610352,0.00710449,
3004,-0.00610352,0.00707397,
3006,-0.00915527,0.00709229,
3008,-0.00427246,0.00706177,
3010,-0.00488281,0.00703735,
3012,-0.00793457,0.00705566,
3014,-0.00976563,0.00708008,
3016,-0.00610352,0.00706787,
3018,-0.010376,0.0071228,
3020,-0.00610352,0.00714111,
3022,-0.00549316,0.00714111,
3024,-0.0128174,0.00715942,
3026,-0.010376,0.00722046,
3028,-0.00549316,0.00723267,
3030,-0.00793457,0.00720215,
3032,-0.0109863,0.00725708,
3034,-0.00549316,0.00724487,
3036,-0.00854492,0.00726318,
3038,-0.00366211,0.00722656,
3040,-0.012207,0.0072998,
3042,-0.0128174,0.00735474,
3044,-0.00610352,0.00733643,
3046,-0.00976563,0.00734863,
3048,-0.00976563,0.00737915,
3050,-0.010376,0.00740356,
3052,-0.00915527,0.00741577,
3054,-0.00549316,0.00737915,
3056,-0.00976563,0.00739136,
3058,-0.00976563,0.00743408,
3060,-0.00549316,0.00740356,
3062,-0.00610352,0.0074585,
3064,-0.012207,0.00755615,
3066,-0.00671387,0.00741577,
3068,-0.00915527,0.0074707,
3070,-0.00854492,0.00749512,
3072,-0.0128174,0.00751343,
3074,-0.00549316,0.00748291,
3076,-0.00732422,0.00745239,
3078,-0.00488281,0.00738525,
3080,-0.00793457,0.00737305,
3082,-0.00671387,0.00737915,
3084,-0.00549316,0.00735474,
3086,-0.0012207,0.00727539,
3088,-0.00488281,0.00726318,
3090,-0.00610352,0.00726929,
3092,-0.00610352,0.00726318,
3094,-0.00610352,0.00726318,
3096,-0.00732422,0.00720825,
3098,-0.00610352,0.00723877,
3100,-0.00793457,0.00723877,
3102,-0.010376,0.00723267,
3104,-0.00427246,0.00718384,
3106,-0.00732422,0.00715942,
3108,-0.0109863,0.00723267,
3110,-0.00244141,0.00721436,
3112,-0.00366211,0.00714111,
3114,-0.00854492,0.00717163,
3116,-0.00427246,0.00717163,
3118,-0.00732422,0.00717163,
3120,-0.0109863,0.00717773,
3122,-0.00427246,0.00720825,
3124,-0.00915527,0.00721436,
3126,-0.00915527,0.00719604,
3128,-0.00610352,0.00720215,
3130,-0.0140381,0.00727539,
3132,-0.00854492,0.00727539,
3134,-0.00488281,0.00726929,
3136,-0.00793457,0.00727539,
3138,-0.010376,0.0072937,
3140,-0.0115967,0.00731812,
3142,-0.00671387,0.00726929,
3144,-0.00915527,0.00726929,
3146,-0.00610352,0.0072876,
3148,-0.012207,0.00731812,
3150,-0.00976563,0.00732422,
3152,-0.00305176,0.00731812,
3154,-0.00732422,0.00720825,
3156,-0.00793457,0.00726929,
3158,-0.00732422,0.00731201,
3160,-0.00305176,0.00722656,
3162,-0.00488281,0.00721436,
3164,-0.00549316,0.00717163,
3166,-0.00244141,0.00713501,
3168,0,0.00708618,
3170,-0.00671387,0.00709229,
3172,-0.010376,0.00708618,
3174,-0.00549316,0.0071228,
3176,0.00366211,0.00709229,
3178,-0.0134277,0.00714722,
3180,-0.00854492,0.00717773,
3182,-0.00976563,0.00725708,
3184,-0.00854492,0.0072876,
3186,-0.00671387,0.00733032,
3188,-0.00915527,0.00738525,
3190,-0.00427246,0.00734863,
3192,-0.0115967,0.00742798,
3194,-0.010376,0.00752563,
3196,-0.00854492,0.00754395,
3198,-0.00305176,0.00750122,
3200,-0.0109863,0.00754395,
3202,-0.0128174,0.00761108,
3204,-0.00793457,0.00762939,
3206,-0.00549316,0.00759277,
3208,-0.00793457,0.00762939,
3210,-0.0115967,0.00769653,
3212,-0.00671387,0.00768433,
3214,-0.00488281,0.0076355,
3216,-0.00793457,0.00765381,
3218,-0.00305176,0.00758057,
3220,-0.00915527,0.00761108,
3222,-0.00488281,0.00760498,
3224,-0.00549316,0.00753174,
3226,-0.00671387,0.00749512,
3228,0,0.00744019,
3230,-0.0109863,0.0074707,
3232,-0.00549316,0.00741577,
3234,-0.00427246,0.00740356,
3236,-0.00671387,0.00738525,
3238,-0.00549316,0.00740356,
3240,-0.012207,0.00740356,
3242,-0.00427246,0.00731812,
3244,-0.00671387,0.00732422,
3246,-0.00732422,0.0072998,
3248,-0.0115967,0.00731812,
3250,-0.0128174,0.00734253,
3252,-0.00244141,0.00727539,
3254,-0.010376,0.00732422,
3256,-0.012207,0.00734863,
3258,-0.0109863,0.00736084,
3260,-0.0109863,0.00741577,
3262,-0.00915527,0.00744629,
3264,-0.00610352,0.00738525,
3266,-0.0152588,0.0074707,
3268,-0.00793457,0.0074585,
3270,-0.0115967,0.00748901,
3272,-0.00976563,0.0074585,
3274,-0.00671387,0.0074707,
3276,-0.00610352,0.0074585,
3278,0.00976563,0.00750732,
3280,-0.03479,0.00777588,
3282,0,0.00770874,
3284,-0.00305176,0.00768433,
3286,-0.00976563,0.00776978,
3288,-0.00671387,0.00778809,
3290,-0.0201416,0.00792847,
3292,-0.0134277,0.00800171,
3294,-0.00854492,0.00802612,
3296,-0.00915527,0.00804443,
3298,-0.00793457,0.00806274,
3300,-0.012207,0.00810547,
3302,-0.00793457,0.00808105,
3304,-0.00854492,0.00812378,
3306,-0.00610352,0.00811157,
3308,-0.00671387,0.00806885,
3310,-0.0109863,0.0081543,
3312,-0.010376,0.00822144,
3314,-0.00183105,0.0081543,
3316,0.00732422,0.00818481,
3318,-0.0238037,0.00834961,
3320,-0.00427246,0.00828247,
3322,-0.00427246,0.00828247,
3324,-0.00305176,0.00822144,
3326,-0.00976563,0.00822754,
3328,-0.00854492,0.00825195,
3330,0.0012207,0.00812378,
3332,-0.0128174,0.0081665,
3334,0.00366211,0.0081543,
3336,-0.00854492,0.0081604,
3338,-0.00793457,0.00813599,
3340,-0.00549316,0.00807495,
3342,-0.00610352,0.00806885,
3344,-0.00732422,0.00805054,
3346,-0.0140381,0.00812988,
3348,-0.0115967,0.00812378,
3350,-0.00976563,0.00812378,
3352,-0.00854492,0.00817871,
3354,-0.00854492,0.00819092,
3356,-0.00488281,0.0081604,
3358,-0.00732422,0.0081604,
3360,-0.0109863,0.00823975,
3362,-0.00366211,0.00822754,
3364,-0.00793457,0.00825195,
3366,-0.0115967,0.00834351,
3368,0,0.00834351,
3370,-0.00732422,0.00834961,
3372,-0.0128174,0.00837402,
3374,-0.00610352,0.00838013,
3376,-0.00732422,0.00841675,
3378,-0.00244141,0.00830688,
3380,-0.00671387,0.00828857,
3382,-0.0109863,0.00830078,
3384,-0.00671387,0.00828247,
3386,-0.00854492,0.00830078,
3388,-0.00549316,0.00826416,
3390,-0.00183105,0.00823975,
3392,-0.00915527,0.00821533,
3394,-0.00976563,0.00820923,
3396,0.00854492,0.00820923,
3398,-0.00488281,0.00822754,
3400,-0.0146484,0.00826416,
3402,0.00183105,0.0081543,
3404,-0.00488281,0.00812378,
3406,-0.0109863,0.00817871,
3408,-0.00183105,0.00811768,
3410,-0.00488281,0.00805054,
3412,-0.0231934,0.00821533,
3414,-0.00671387,0.00823364,
3416,-0.00305176,0.00818481,
3418,-0.0109863,0.00826416,
3420,-0.0152588,0.0083252,
3422,-0.00305176,0.00830688,
3424,-0.00732422,0.0083252,
3426,-0.012207,0.00838013,
3428,-0.00366211,0.00841675,
3430,-0.00793457,0.00838623,
3432,-0.00793457,0.00841064,
3434,-0.00244141,0.00839233,
3436,-0.00854492,0.00841064,
3438,-0.00549316,0.00841064,
3440,-0.00793457,0.00836792,
3442,-0.00671387,0.00839233,
3444,0.00183105,0.00834351,
3446,-0.0177002,0.00844727,
3448,-0.00427246,0.00837402,
3450,-0.00793457,0.0083252,
3452,-0.00671387,0.00836792,
3454,-0.00549316,0.00831909,
3456,-0.00671387,0.00826416,
3458,-0.00854492,0.00823975,
3460,-0.00610352,0.00819092,
3462,-0.000610352,0.00810547,
3464,-0.00671387,0.00811157,
3466,-0.00427246,0.00800171,
3468,-0.00732422,0.00799561,
3470,-0.00671387,0.00794678,
3472,-0.00183105,0.00786743,
3474,-0.0115967,0.00791626,
3476,-0.00427246,0.00789795,
3478,-0.000610352,0.0078064,
3480,-0.0134277,0.00759277,
3482,-0.00366211,0.00762939,
3484,-0.00610352,0.00765991,
3486,0.000610352,0.00756836,
3488,-0.0170898,0.00767212,
3490,-0.00244141,0.00749512,
3492,-0.00427246,0.00740356,
3494,-0.00732422,0.00739136,
3496,-0.00305176,0.00733032,
3498,-0.012207,0.00737305,
3500,0.00244141,0.00727539,
3502,-0.00366211,0.00723267,
3504,-0.00915527,0.00723877,
3506,0.0280762,0.0074585,
3508,-0.032959,0.00772095,
3510,0.00732422,0.00768433,
3512,-0.00549316,0.0076355,
3514,-0.00183105,0.0076355,
3516,-0.00793457,0.0076416,
3518,-0.00915527,0.00749512,
3520,-0.00427246,0.00749512,
3522,-0.0158691,0.00761108,
3524,-0.00732422,0.00765381,
3526,-0.00244141,0.00758057,
3528,-0.00671387,0.00756226,
3530,-0.00976563,0.00764771,
3532,-0.00488281,0.00756836,
3534,-0.00671387,0.00759888,
3536,-0.00610352,0.00757446,
3538,0,0.00749512,
3540,-0.00732422,0.00751343,
3542,-0.00183105,0.0074707,
3544,-0.00305176,0.00742798,
3546,-0.00488281,0.00733643,
3548,0.0012207,0.00723267,
3550,-0.00732422,0.00720825,
3552,-0.00671387,0.00718994,
3554,-0.00671387,0.00717163,
3556,-0.00488281,0.00717163,
3558,-0.00732422,0.00717163,
3560,-0.00610352,0.0071228,
3562,-0.00549316,0.00714111,
3564,-0.00549316,0.0071167,
3566,-0.00671387,0.00706787,
3568,-0.00671387,0.00713501,
3570,-0.00549316,0.0071167,
3572,-0.00244141,0.00701294,
3574,-0.00732422,0.00702515,
3576,-0.00488281,0.00700073,
3578,-0.00915527,0.00706787,
3580,-0.00305176,0.00703125,
3582,-0.00732422,0.00699463,
3584,-0.00610352,0.00698853,
3586,0.00671387,0.00697021,
3588,-0.020752,0.0071228,
3590,-0.00976563,0.00720215,
3592,-0.00183105,0.00712891,
3594,-0.00610352,0.00709229,
3596,-0.00793457,0.00708618,
3598,0.000610352,0.00704346,
3600,-0.0140381,0.00703735,
3602,-0.00549316,0.00707397,
3604,-0.00793457,0.00710449,
3606,-0.00732422,0.00706787,
3608,-0.00488281,0.00709839,
3610,-0.00793457,0.00712891,
3612,-0.00305176,0.00692749,
3614,-0.0115967,0.00697632,
3616,0.00305176,0.00697632,
3618,-0.020752,0.00707397,
3620,-0.00549316,0.00697632,
3622,-0.00366211,0.00698242,
3624,-0.00427246,0.0069519,
3626,-0.0109863,0.0069397,
3628,-0.0109863,0.00701294,
3630,-0.00732422,0.00700684,
3632,-0.00366211,0.00696411,
3634,-0.00732422,0.00701294,
3636,-0.00671387,0.00699463,
3638,-0.00427246,0.00698242,
3640,-0.00305176,0.00693359,
3642,0.000610352,0.00687256,
3644,-0.0115967,0.00697021,
3646,-0.0140381,0.00693359,
3648,-0.00244141,0.00691528,
3650,-0.00366211,0.00687256,
3652,-0.00671387,0.00687256,
3654,-0.012207,0.0069397,
3656,-0.012207,0.00699463,
3658,-0.00366211,0.0069458,
3660,-0.00488281,0.00693359,
3662,-0.00366211,0.00696411,
3664,-0.00610352,0.00695801,
3666,0.00671387,0.00698242,
3668,-0.0128174,0.00703735,
3670,-0.00427246,0.00701294,
3672,-0.00549316,0.00704956,
3674,-0.00183105,0.0069519,
3676,0,0.00690918,
3678,-0.0115967,0.00701904,
3680,-0.0146484,0.00703125,
3682,-0.00244141,0.00701904,
3684,-0.00366211,0.00699463,
3686,-0.00366211,0.00702515,
3688,-0.0134277,0.00698853,
3690,-0.0115967,0.00708008,
3692,0,0.00703735,
3694,-0.0140381,0.00710449,
3696,0.000610352,0.00708008,
3698,-0.0195313,0.00715332,
3700,-0.00366211,0.00716553,
3702,-0.0134277,0.00726318,
3704,-0.00732422,0.00724487,
3706,-0.00793457,0.00704346,
3708,-0.00732422,0.00678711,
3710,-0.0109863,0.00682373,
3712,-0.00854492,0.00685425,
3714,0.00610352,0.00689697,
3716,-0.0134277,0.0069519,
3718,-0.00854492,0.0069458,
3720,-0.00671387,0.00697021,
3722,-0.00305176,0.00684204,
3724,0.00976563,0.00686646,
3726,-0.0201416,0.00704346,
3728,-0.0158691,0.00713501,
3730,-0.00244141,0.00706177,
3732,-0.00183105,0.00703125,
3734,0.000610352,0.00697021,
3736,-0.0213623,0.0071228,
3738,0.00305176,0.00715332,
3740,-0.00732422,0.00715332,
3742,-0.0231934,0.00736694,
3744,-0.00305176,0.00736694,
3746,-0.00183105,0.00733643,
3748,-0.00793457,0.00740356,
3750,-0.012207,0.00745239,
3752,-0.00854492,0.0074707,
3754,-0.00793457,0.00748291,
3756,-0.00671387,0.00750122,
3758,-0.00915527,0.00751953,
3760,-0.00183105,0.00747681,
3762,-0.00976563,0.00751953,
3764,-0.00854492,0.00755005,
3766,-0.00915527,0.00757446,
3768,-0.00732422,0.00758057,
3770,-0.00793457,0.00760498,
3772,-0.012207,0.00770264,
3774,0.000610352,0.0076355,
3776,-0.00610352,0.00764771,
3778,-0.0177002,0.00773315,
3780,-0.00671387,0.00776978,
3782,-0.00244141,0.00772095,
3784,-0.00305176,0.00769043,
3786,-0.00183105,0.0076416,
3788,-0.00915527,0.00752563,
3790,-0.0128174,0.00755615,
3792,-0.0115967,0.00765381,
3794,-0.00549316,0.00764771,
3796,-0.00488281,0.00761719,
3798,-0.00915527,0.00770264,
3800,-0.00976563,0.00765991,
3802,0.0012207,0.00761719,
3804,-0.0109863,0.00764771,
3806,-0.00671387,0.0076416,
3808,-0.0128174,0.00772095,
3810,-0.00488281,0.00769043,
3812,-0.00854492,0.00774536,
3814,-0.0134277,0.00776367,
3816,-0.0134277,0.00786743,
3818,-0.0170898,0.00783081,
3820,-0.0164795,0.00794067,
3822,-0.00183105,0.00792236,
3824,-0.00244141,0.00790405,
3826,-0.00244141,0.0078186,
3828,-0.00366211,0.00774536,
3830,-0.00671387,0.00773926,
3832,0.00610352,0.00776367,
3834,-0.0164795,0.00785522,
3836,-0.000610352,0.00779419,
3838,-0.00732422,0.00782471,
3840,-0.0158691,0.00795288,
3842,-0.00549316,0.00800171,
3844,-0.00488281,0.00793457,
3846,-0.0292969,0.00808716,
3848,0.0012207,0.00807495,
3850,-0.0158691,0.00819702,
3852,-0.0164795,0.00829468,
3854,-0.010376,0.00827637,
3856,-0.0140381,0.00829468,
3858,-0.0109863,0.00836792,
3860,-0.0140381,0.00845947,
3862,-0.00793457,0.0085022,
3864,-0.00976563,0.00853882,
3866,-0.00854492,0.00855713,
3868,0.00244141,0.00845337,
3870,-0.0134277,0.00854492,
3872,-0.00610352,0.00855103,
3874,-0.00793457,0.00861206,
3876,-0.00793457,0.00869141,
3878,-0.00854492,0.00866089,
3880,-0.00610352,0.00857544,
3882,-0.00732422,0.00862427,
3884,-0.0134277,0.00872192,
3886,-0.00427246,0.00872803,
3888,-0.0012207,0.00860596,
3890,0.0134277,0.00862427,
3892,-0.0280762,0.00890503,
3894,-0.00976563,0.0088623,
3896,0.000610352,0.0088623,
3898,-0.00793457,0.00874634,
3900,-0.00976563,0.00880737,
3902,-0.0109863,0.00878296,
3904,-0.0140381,0.0088501,
3906,-0.00854492,0.0088562,
3908,-0.00427246,0.00882568,
3910,-0.010376,0.00881958,
3912,-0.00732422,0.00880737,
3914,-0.00549316,0.00880127,
3916,-0.00549316,0.00872192,
3918,0.00244141,0.00866089,
3920,-0.0189209,0.00878296,
3922,-0.00854492,0.00883789,
3924,-0.00244141,0.00876465,
3926,-0.00549316,0.00861816,
3928,-0.010376,0.00856323,
3930,-0.00183105,0.00855713,
3932,0.000610352,0.00854492,
3934,-0.0146484,0.0086853,
3936,-0.0115967,0.00858765,
3938,0.00305176,0.00858765,
3940,-0.00183105,0.00853271,
3942,-0.012207,0.00842285,
3944,-0.00549316,0.00844727,
3946,-0.00732422,0.0085022,
3948,-0.00915527,0.0085144,
3950,-0.00671387,0.00845947,
3952,-0.00793457,0.00845337,
3954,-0.00244141,0.00839844,
3956,-0.00915527,0.00842285,
3958,-0.010376,0.00843506,
3960,-0.000610352,0.00842285,
3962,-0.00610352,0.00838623,
3964,-0.00671387,0.00836792,
3966,-0.00854492,0.00836182,
3968,-0.0012207,0.00830078,
3970,-0.00976563,0.00831909,
3972,-0.00854492,0.00828247,
3974,-0.00854492,0.00836182,
3976,-0.00183105,0.00831909,
3978,-0.00183105,0.0081604,
3980,-0.00366211,0.00812988,
3982,-0.0140381,0.00824585,
3984,-0.00732422,0.00828857,
3986,0,0.00827026,
3988,-0.00366211,0.00821533,
3990,-0.012207,0.00820923,
3992,-0.00610352,0.0081543,
3994,-0.00549316,0.0081543,
3996,-0.00366211,0.00814209,
3998,-0.00427246,0.00809326,
4000,-0.000610352,0.00800171,
4002,-0.00732422,0.00806274,
4004,-0.00793457,0.00803223,
4006,0.000610352,0.00797119,
4008,-0.0219727,0.00806274,
4010,-0.000610352,0.00802002,
4012,-0.00305176,0.00796509,
4014,-0.012207,0.00795288,
4016,-0.00976563,0.00791626,
4018,-0.0109863,0.00785522,
4020,0.00305176,0.00772095,
4022,-0.00427246,0.00774536,
4024,-0.0109863,0.00783081,
4026,0.0170898,0.00797729,
4028,-0.00976563,0.00803833,
4030,-0.000610352,0.00797729,
4032,-0.00488281,0.00796509,
4034,0.0170898,0.00797119,
4036,-0.00305176,0.00799561,
4038,-0.00732422,0.00799561,
4040,0.010376,0.00794067,
4042,-0.020752,0.00809326,
4044,0.00244141,0.00806885,
4046,-0.00305176,0.0078064,
4048,0.012207,0.00791626,
4050,0.00915527,0.00784912,
4052,-0.00549316,0.00773926,
4054,-0.0201416,0.00783691,
4056,0.00732422,0.00776978,
4058,-0.00915527,0.00775146,
4060,-0.0335693,0.00794678,
4062,-0.0164795,0.00803223,
4064,-0.0250244,0.00818481,
4066,0.032959,0.00842896,
4068,0.0219727,0.00862427,
4070,0.00671387,0.00855713,
4072,-0.03479,0.00884399,
4074,0.0164795,0.00892944,
4076,0.0311279,0.00916138,
4078,0.0384521,0.00946045,
4080,-0.0286865,0.00968628,
4082,-0.032959,0.00994263,
4084,0.00976563,0.00990601,
4086,0.020752,0.0100708,
4088,0.0170898,0.0102295,
4090,-0.0408936,0.0105042,
4092,0.088501,0.0111084,
4094,0.0238037,0.0112488,
4096,-0.0244141,0.0114868,
4098,0.0561523,0.011969,
4100,-0.00610352,0.0119324,
4102,0.00488281,0.0118713,
4104,-0.0262451,0.0119934,
4106,-0.0439453,0.0123474,
4108,-0.0323486,0.0126282,
4110,-0.0671387,0.0131958,
4112,-0.0421143,0.0135437,
4114,0.0189209,0.013678,
4116,-0.00854492,0.0137085,
4118,-0.0195313,0.0138794,
4120,0.067749,0.0143677,
4122,-0.0970459,0.0152527,
4124,0.0134277,0.0153625,
4126,0.0610352,0.015918,
4128,-0.00427246,0.0158569,
4130,-0.0415039,0.0162537,
4132,-0.0494385,0.0167419,
4134,0.0219727,0.0168152,
4136,0.0402832,0.0171021,
4138,-0.0183105,0.0172546,
4140,0.0634766,0.0178711,
4142,0.00854492,0.0178345,
4144,-0.0164795,0.0179443,
4146,0.144653,0.0193176,
4148,-0.010376,0.0193298,
4150,-0.0610352,0.019873,
4152,-0.0183105,0.0199768,
4154,-0.0775146,0.0207275,
4156,0.020752,0.0208435,
4158,0.0341797,0.0210815,
4160,-0.0610352,0.0216858,
4162,-0.0878906,0.0225037,
4164,0.0140381,0.0225769,
4166,0.0164795,0.0226562,
4168,-0.022583,0.0228699,
4170,-0.0543213,0.0233154,
4172,0.0256348,0.0234863,
4174,0.0439453,0.0238403,
4176,-0.0292969,0.024115,
4178,-0.0793457,0.0248901,
4180,-0.0421143,0.0252747,
4182,0.0427246,0.0255615,
4184,-0.0604248,0.0260925,
4186,-0.00427246,0.0261353,
4188,0.0494385,0.026593,
4190,-0.0274658,0.0267456,
4192,-0.0238037,0.0269226,
4194,0.0354004,0.0272217,
4196,-0.0256348,0.0274414,
4198,0.0531006,0.0279297,
4200,0.0177002,0.0281006,
4202,-0.0524902,0.0285522,
4204,0.0244141,0.028717,
4206,0.0805664,0.0295166,
4208,-0.0592041,0.0298889,
4210,-0.0842285,0.0307251,
4212,0.0201416,0.030896,
4214,-0.0219727,0.0309937,
4216,0.0695801,0.0315918,
4218,-0.117188,0.0326538,
4220,-0.0439453,0.0330627,
4222,0.0311279,0.0333313,
4224,0.0866699,0.0340881,
4226,-0.0537109,0.0344543,
4228,-0.0164795,0.0345215,
4230,0.10437,0.0355591,
4232,0.0701904,0.0362122,
4234,0.067749,0.0367187,
4236,0.0195313,0.0368835,
4238,0.0292969,0.0371033,
4240,-0.0128174,0.0371277,
4242,0.065918,0.0375793,
4244,-0.00305176,0.0375854,
4246,-0.0341797,0.0378967,
4248,0.114136,0.038916,
4250,-0.057373,0.0393982,
4252,-0.0823975,0.0401672,
4254,-0.010376,0.0400696,
4256,0.0646973,0.0406433,
4258,-0.0128174,0.0406799,
4260,-0.0506592,0.0408508,
4262,0.065918,0.0413452,
4264,0.0213623,0.0413086,
4266,-0.106812,0.0420471,
4268,-0.00793457,0.0419067,
4270,0.12085,0.0430481,
4272,-0.0213623,0.0429138,
4274,-0.0866699,0.0436157,
4276,-0.0140381,0.0434448,
4278,0.0250244,0.0433105,
4280,0.000610352,0.0430298,
4282,-0.0177002,0.0428772,
4284,-0.112305,0.0439026,
4286,0.0769043,0.0444641,
4288,0.0421143,0.0447144,
4290,-0.0280762,0.0445862,
4292,0.112305,0.0448242,
4294,0.0823975,0.0454102,
4296,-0.00305176,0.0451965,
4298,-0.0762939,0.0453979,
4300,0.0189209,0.0455261,
4302,-0.0189209,0.0456665,
4304,-0.0408936,0.045813,
4306,-0.0140381,0.0455139,
4308,-0.0610352,0.0458008,
4310,-0.0012207,0.0451416,
4312,0.0390625,0.0451111,
4314,0.111694,0.0460388,
4316,0.101929,0.0469727,
4318,-0.107422,0.0478516,
4320,0.0152588,0.0473267,
4322,0.144653,0.0478027,
4324,-0.0402832,0.0480713,
4326,-0.0366211,0.0478271,
4328,-0.0628662,0.0484131,
4330,-0.0238037,0.0482361,
4332,-0.0439453,0.0481812,
4334,0.0439453,0.0484009,
4336,0.0177002,0.048175,
4338,0.088501,0.048877,
4340,0.0372314,0.0486145,
4342,-0.0469971,0.048999,
4344,0.00183105,0.0488525,
4346,0.090332,0.0483093,
4348,-0.0738525,0.0489441,
4350,-0.0280762,0.0486145,
4352,-0.0848389,0.0492798,
4354,0.00976563,0.0486023,
4356,-0.0231934,0.0486267,
4358,0.00915527,0.0483765,
4360,-0.0402832,0.0481689,
4362,-0.0482178,0.0477722,
4364,0.0500488,0.0481323,
4366,0.0262451,0.04823,
4368,0.0494385,0.0484985,
4370,0.00244141,0.0479797,
4372,0.00915527,0.0478149,
4374,0.0512695,0.0478882,
4376,-0.010376,0.047699,
4378,0.00427246,0.0469482,
4380,0.00610352,0.0465881,
4382,0.0299072,0.04646,
4384,-0.101318,0.0468689,
4386,0.0183105,0.0470093,
4388,-0.0219727,0.0467346,
4390,-0.0268555,0.0467285,
4392,0.0299072,0.0467896,
4394,-0.00488281,0.0464844,
4396,0,0.046228,
4398,0.00305176,0.0457275,
4400,-0.0201416,0.045752,
4402,0.00732422,0.0453003,
4404,-0.0744629,0.0458008,
4406,0.0628662,0.0456238,
4408,0.00305176,0.0450623,
4410,-0.0775146,0.0449951,
4412,-0.043335,0.0452271,
4414,0.0360107,0.0453674,
4416,-0.0402832,0.0450745,
4418,0.0195313,0.0440979,
4420,-0.00610352,0.0437195,
4422,-0.0415039,0.0438232,
4424,0.0500488,0.043457,
4426,-0.055542,0.0434753,
4428,-0.0445557,0.0437561,
4430,-0.0238037,0.0429504,
4432,0.0146484,0.042395,
4434,-0.0201416,0.0419189,
4436,-0.00610352,0.0417847,
4438,0.00854492,0.0415771,
4440,-0.0183105,0.0416321,
4442,0.0372314,0.0413452,
4444,0.0469971,0.0417847,
4446,-0.0164795,0.0416077,
4448,0.0164795,0.0406311,
4450,0.00366211,0.040094,
4452,-0.0323486,0.0395935,
4454,0.0360107,0.0398499,
4456,0.0280762,0.0394836,
4458,-0.0683594,0.0400391,
4460,-0.0567627,0.0401001,
4462,0.0592041,0.040033,
4464,-0.0140381,0.0399597,
4466,-0.0177002,0.0390686,
4468,0.0341797,0.0393311,
4470,0.0183105,0.0383057,
4472,-0.0244141,0.0383362,
4474,-0.0335693,0.0378052,
4476,0.0469971,0.0381348,
4478,-0.0177002,0.0380615,
4480,-0.0177002,0.0382324,
4482,-0.0280762,0.0383362,
4484,-0.0372314,0.0375854,
4486,0.0250244,0.0370667,
4488,-0.010376,0.0367493,
4490,-0.0469971,0.0369385,
4492,0.0109863,0.0359253,
4494,0.00732422,0.0351746,
4496,0.000610352,0.0351501,
4498,-0.00366211,0.0344238,
4500,-0.00915527,0.0343262,
4502,-0.00183105,0.0341553,
4504,0.0134277,0.0338806,
4506,-0.0378418,0.0341187,
4508,0.00366211,0.0335449,
4510,0.0244141,0.0337769,
4512,0.0604248,0.0339905,
4514,0.0341797,0.0332153,
4516,-0.045166,0.0326477,
4518,0.0183105,0.0317566,
4520,-0.0109863,0.0317139,
4522,0.00854492,0.0303528,
4524,-0.0189209,0.0301392,
4526,0.0201416,0.0299744,
4528,-0.00976563,0.0294434,
4530,-0.0549316,0.0297546,
4532,-0.0305176,0.0296204,
4534,0.0366211,0.0295471,
4536,0.00732422,0.0294434,
4538,-0.0311279,0.0288696,
4540,0.0195313,0.0286926,
4542,-0.0665283,0.0288879,
4544,0.0299072,0.0291687,
4546,-0.0372314,0.0286377,
4548,0.0396729,0.0282959,
4550,0.010376,0.0281189,
4552,-0.0219727,0.0274902,
4554,-0.0335693,0.0277283,
4556,0.0653076,0.0281494,
4558,0.00549316,0.0281128,
4560,-0.0622559,0.0283325,
4562,0.0299072,0.0281494,
4564,0.100098,0.0286499,
4566,-0.0561523,0.028949,
4568,-0.0604248,0.0290588,
4570,-0.0280762,0.0293152,
4572,0.0292969,0.0295166,
4574,0.0012207,0.0290161,
4576,-0.0158691,0.029071,
4578,-0.0482178,0.0295105,
4580,0.00427246,0.0294922,
4582,0.0219727,0.0294128,
4584,0.0683594,0.0290833,
4586,0.00671387,0.0289673,
4588,0.00244141,0.028772,
4590,-0.0585938,0.0290894,
4592,0.0231934,0.0290222,
4594,0.0335693,0.0293091,
4596,-0.020752,0.0295166,
4598,-0.0872803,0.0303589,
4600,-0.00915527,0.030249,
4602,0.0195313,0.0303711,
4604,0.0109863,0.0297363,
4606,-0.00366211,0.0291443,
4608,0,0.0291138,
4610,-0.0170898,0.0285095,
4612,0.0549316,0.0286255,
4614,-0.00244141,0.0282898,
4616,0.0012207,0.0278992,
4618,0.0219727,0.0279236,
4620,-0.0146484,0.028009,
4622,-0.0354004,0.027948,
4624,0.0720215,0.0281677,
4626,-0.010376,0.0277161,
4628,-0.032959,0.0276001,
4630,-0.012207,0.0274841,
4632,-0.022583,0.0275635,
4634,-0.0146484,0.0275085,
4636,-0.00732422,0.0275208,
4638,0.0390625,0.0278259,
4640,0.0170898,0.0278137,
4642,-0.00915527,0.027533,
4644,-0.00915527,0.0271545,
4646,-0.00549316,0.0270447,
4648,0.0738525,0.0276184,
4650,0.03479,0.0279297,
4652,-0.0360107,0.0279663,
4654,-0.0250244,0.0278564,
4656,-0.0140381,0.0277161,
4658,-0.0146484,0.027179,
4660,-0.00427246,0.0266541,
4662,-0.0402832,0.0264648,
4664,-0.0152588,0.0264771,
4666,-0.00732422,0.0263733,
4668,-0.0415039,0.0264465,
4670,0.0378418,0.0266418,
4672,-0.0482178,0.0268799,
4674,0.0427246,0.0269714,
4676,-0.0219727,0.0267212,
4678,0.00244141,0.0265686,
4680,0.0463867,0.0268555,
4682,-0.0244141,0.0268188,
4684,0.00732422,0.0265198,
4686,0.0457764,0.0267273,
4688,-0.0500488,0.027124,
4690,-0.0262451,0.0269165,
4692,0.0646973,0.0274536,
4694,0.0256348,0.0276367,
4696,-0.0183105,0.0278137,
4698,-0.043335,0.0282104,
4700,0.0140381,0.0282593,
4702,0.00183105,0.0282593,
4704,0.00549316,0.0281799,
4706,-0.0170898,0.0279724,
4708,-0.00610352,0.0279968,
4710,-0.0482178,0.0282349,
4712,0.0152588,0.0277832,
4714,0.0146484,0.0275879,
4716,0.022583,0.0273621,
4718,-0.0476074,0.027655,
4720,-0.0585938,0.0281311,
4722,0.020752,0.0282532,
4724,0.00671387,0.0281311,
4726,-0.0396729,0.0283264,
4728,-0.0256348,0.0284851,
4730,-0.0439453,0.0283752,
4732,0.0115967,0.028186,
4734,-0.0164795,0.0279846,
4736,-0.032959,0.028241,
4738,0.0671387,0.0286011,
4740,-0.0457764,0.0288635,
4742,-0.010376,0.028302,
4744,-0.00366211,0.0280396,
4746,-0.0115967,0.0277832,
4748,-0.00549316,0.0274414,
4750,-0.0219727,0.0275574,
4752,-0.0146484,0.0274841,
4754,0.0177002,0.0273254,
4756,-0.00427246,0.0267151,
4758,0.00549316,0.0267151,
4760,0.0408936,0.0265015,
4762,0.0231934,0.0264343,
4764,0.00427246,0.0254761,
4766,0.00488281,0.0249634,
4768,-0.00244141,0.0243835,
4770,0.0250244,0.024353,
4772,0,0.0240601,
4774,-0.0134277,0.0241821,
4776,-0.0189209,0.0242126,
4778,-0.0262451,0.0239929,
4780,-0.00549316,0.0240051,
4782,-0.00488281,0.0238342,
4784,-0.0250244,0.0234009,
4786,-0.0189209,0.0235229,
4788,-0.0012207,0.0235107,
4790,-0.0280762,0.0232056,
4792,-0.0152588,0.0231262,
4794,-0.00793457,0.0228699,
4796,0.00488281,0.0227112,
4798,0.00854492,0.0219238,
4800,-0.00610352,0.0218933,
4802,0.00671387,0.0217651,
4804,0.00610352,0.0217163,
4806,0,0.0216797,
4808,0.00366211,0.0217163,
4810,-0.00915527,0.021637,
4812,0.000610352,0.0210938,
4814,-0.0140381,0.0212097,
4816,-0.00915527,0.0212891,
4818,0.0189209,0.0212585,
4820,-0.0262451,0.0213745,
4822,-0.0256348,0.0212769,
4824,-0.00732422,0.0206299,
4826,-0.0012207,0.0205383,
4828,-0.010376,0.0203125,
4830,-0.0201416,0.0203918,
4832,-0.0109863,0.0202759,
4834,-0.0189209,0.0203186,
4836,-0.0177002,0.0204224,
4838,-0.000610352,0.0200378,
4840,-0.00671387,0.0199341,
4842,-0.00854492,0.019928,
4844,-0.00854492,0.0199219,
4846,-0.0134277,0.0200012,
4848,-0.0152588,0.0194153,
4850,0.0115967,0.0191833,
4852,-0.0177002,0.0190002,
4854,-0.00427246,0.0187927,
4856,-0.00427246,0.0186951,
4858,-0.010376,0.0186523,
4860,0.0012207,0.0186218,
4862,0.00549316,0.0182739,
4864,-0.0128174,0.0182495,
4866,0.00305176,0.0182068,
4868,0,0.0177917,
4870,-0.0286865,0.0177002,
4872,0.0012207,0.0172302,
4874,0.010376,0.0169067,
4876,-0.00732422,0.0167603,
4878,-0.00610352,0.0167969,
4880,0.00244141,0.0163574,
4882,0.010376,0.016217,
4884,-0.0366211,0.01651,
4886,0.00732422,0.0161255,
4888,0.0146484,0.0157715,
4890,-0.0128174,0.0156372,
4892,-0.0341797,0.015332,
4894,-0.0109863,0.0151855,
4896,-0.0012207,0.0150146,
4898,-0.0244141,0.0148254,
4900,-0.00671387,0.0147522,
4902,-0.00854492,0.0148193,
4904,-0.00610352,0.0148254,
4906,-0.012207,0.0147766,
4908,-0.0231934,0.0149475,
4910,-0.00366211,0.014502,
4912,-0.0219727,0.0145691,
4914,0.00732422,0.0144958,
4916,-0.03479,0.0146179,
4918,-0.0170898,0.0143127,
4920,-0.00671387,0.0137939,
4922,-0.00671387,0.0136536,
4924,-0.0183105,0.0137695,
4926,-0.012207,0.0134949,
4928,-0.00793457,0.0133179,
4930,-0.00427246,0.0129211,
4932,-0.00854492,0.0128906,
4934,-0.00366211,0.0127625,
4936,-0.0238037,0.0126709,
4938,-0.0128174,0.0121277,
4940,-0.00854492,0.0117554,
4942,-0.0012207,0.0116638,
4944,-0.0183105,0.0118103,
4946,-0.0500488,0.0121948,
4948,0.0109863,0.0122498,
4950,-0.00549316,0.012085,
4952,-0.0268555,0.012207,
4954,-0.0140381,0.0121704,
4956,0.00244141,0.0121521,
4958,-0.00671387,0.0121643,
4960,-0.010376,0.0118591,
4962,-0.0201416,0.0118286,
4964,-0.00793457,0.0118652,
4966,-0.0115967,0.0119324,
4968,-0.020752,0.0121155,
4970,-0.0152588,0.0120178,
4972,-0.0195313,0.0122131,
4974,-0.0164795,0.0122437,
4976,-0.012207,0.0121765,
4978,-0.00732422,0.0119873,
4980,-0.0231934,0.0121643,
4982,0.0244141,0.0123596,
4984,-0.0299072,0.0124084,
4986,-0.0286865,0.0125061,
4988,-0.00305176,0.0125244,
4990,-0.010376,0.0123474,
4992,-0.0219727,0.0124146,
4994,-0.0152588,0.0124878,
4996,-0.0115967,0.0125549,
4998,-0.0390625,0.0128601,
5000,0.00427246,0.0128418,
5002,0.00610352,0.0128357,
5004,-0.032959,0.0131042,
5006,-0.012207,0.0132263,
5008,-0.00427246,0.0132324,
5010,-0.00610352,0.0132019,
5012,-0.022583,0.0134216,
5014,-0.0183105,0.0134644,
5016,-0.00549316,0.0134277,
5018,-0.0238037,0.0134766,
5020,-0.0140381,0.0133545,
5022,-0.020752,0.0133057,
5024,-0.0177002,0.0134094,
5026,-0.00366211,0.0134338,
5028,0.0128174,0.0134583,
5030,-0.00732422,0.0133301,
5032,-0.0305176,0.0135254,
5034,-0.00671387,0.0134033,
5036,0.0134277,0.0133606,
5038,0.00915527,0.013446,
5040,0.00549316,0.0134338,
5042,-0.0512695,0.0138611,
5044,-0.0378418,0.0141541,
5046,-0.00793457,0.0140991,
5048,-0.0164795,0.0141113,
5050,-0.057373,0.0145691,
5052,-0.0219727,0.0146118,
5054,-0.0427246,0.0149963,
5056,-0.0146484,0.0151001,
5058,0.00671387,0.0150635,
5060,-0.0604248,0.0156555,
5062,0.00610352,0.0156616,
5064,-0.00549316,0.0155884,
5066,-0.0262451,0.0158203,
5068,-0.022583,0.0160461,
5070,-0.0152588,0.0159119,
5072,-0.0231934,0.0161316,
5074,-0.0219727,0.0162476,
5076,-0.0286865,0.0164612,
5078,-0.020752,0.0166077,
5080,-0.0286865,0.0168701,
5082,-0.00244141,0.0167908,
5084,-0.00915527,0.0165161,
5086,-0.012207,0.0165649,
5088,-0.000610352,0.0164246,
5090,-0.020752,0.0165039,
5092,-0.0128174,0.0162903,
5094,0.0012207,0.0161926,
5096,-0.0012207,0.0161926,
5098,-0.0140381,0.0160889,
5100,-0.0189209,0.0162109,
5102,-0.0115967,0.0162415,
5104,-0.00976563,0.0162781,
5106,-0.0158691,0.0163147,
5108,-0.00610352,0.0161438,
5110,-0.0146484,0.0162537,
5112,-0.010376,0.0161377,
5114,-0.00610352,0.0161255,
5116,0.00244141,0.015802,
5118,-0.00366211,0.0156677,
5120,-0.00671387,0.0156677,
5122,0.0201416,0.015802,
5124,-0.0158691,0.0157776,
5126,-0.012207,0.0157776,
5128,0.0109863,0.0158081,
5130,0.00549316,0.0158203,
5132,-0.00366211,0.0157715,
5134,-0.0177002,0.0159119,
5136,-0.0152588,0.0158264,
5138,-0.00183105,0.0157166,
5140,-0.0109863,0.015741,
5142,0.00244141,0.0157532,
5144,-0.0152588,0.0157227,
5146,-0.0219727,0.0154419,
5148,0.00183105,0.0153503,
5150,-0.00366211,0.015332,
5152,0.0012207,0.0150757,
5154,-0.00488281,0.0149841,
5156,-0.0231934,0.0151917,
5158,-0.012207,0.0152466,
5160,-0.0012207,0.015155,
5162,0.00366211,0.0149902,
5164,-0.0183105,0.015094,
5166,-0.00427246,0.0150208,
5168,-0.0158691,0.0149719,
5170,-0.00854492,0.0149048,
5172,-0.0146484,0.014856,
5174,-0.010376,0.0147949,
5176,-0.00244141,0.0146973,
5178,-0.0183105,0.0148071,
5180,-0.00671387,0.0146423,
5182,-0.0335693,0.0147339,
5184,0.00610352,0.0144958,
5186,-0.0256348,0.0144653,
5188,-0.0146484,0.0145813,
5190,-0.00976563,0.0145752,
5192,-0.0189209,0.0145447,
5194,-0.0146484,0.0145386,
5196,-0.0170898,0.0145935,
5198,-0.0195313,0.0143982,
5200,-0.00854492,0.0144409,
5202,-0.0134277,0.0145142,
5204,-0.0158691,0.0143433,
5206,-0.00976563,0.0143188,
5208,-0.0183105,0.0144592,
5210,-0.0128174,0.0145264,
5212,-0.0164795,0.0144653,
5214,-0.0189209,0.0144714,
5216,-0.0195313,0.0146118,
5218,-0.0250244,0.014624,
5220,-0.0183105,0.0146667,
5222,-0.0219727,0.014679,
5224,-0.0134277,0.0146362,
5226,-0.0292969,0.0148926,
5228,-0.0152588,0.014917,
5230,-0.0158691,0.0150024,
5232,-0.012207,0.0148193,
5234,-0.0140381,0.0148926,
5236,-0.0146484,0.0149048,
5238,-0.0115967,0.0149292,
5240,-0.010376,0.014978,
5242,-0.000610352,0.0144714,
5244,-0.0128174,0.0142212,
5246,-0.00183105,0.0141602,
5248,0.00732422,0.0140686,
5250,-0.0115967,0.0136108,
5252,-0.00488281,0.0134399,
5254,0.00183105,0.013031,
5256,-0.00183105,0.0129028,
5258,-0.00732422,0.0129089,
5260,-0.00366211,0.0123413,
5262,0.00610352,0.0123413,
5264,0.00854492,0.0123718,
5266,-0.0280762,0.0123901,
5268,-0.000610352,0.0121704,
5270,0.00366211,0.0120544,
5272,-0.00305176,0.011853,
5274,-0.00244141,0.0116577,
5276,-0.012207,0.0114929,
5278,-0.0140381,0.0114258,
5280,-0.00793457,0.0112183,
5282,0.0158691,0.0113525,
5284,0.00488281,0.0113098,
5286,-0.0323486,0.0115112,
5288,0.000610352,0.0115112,
5290,-0.00549316,0.0113586,
5292,-0.010376,0.0113342,
5294,-0.0152588,0.0114746,
5296,-0.0140381,0.0116028,
5298,-0.0164795,0.0116272,
5300,-0.0134277,0.0115723,
5302,-0.0140381,0.0115967,
5304,-0.0146484,0.0116455,
5306,-0.00793457,0.0115662,
5308,-0.010376,0.0116089,
5310,-0.0177002,0.0116394,
5312,-0.00793457,0.011615,
5314,-0.00915527,0.0116455,
5316,-0.0219727,0.0118408,
5318,-0.00976563,0.0119019,
5320,-0.0115967,0.0119507,
5322,-0.00854492,0.0118347,
5324,-0.0152588,0.0118286,
5326,-0.012207,0.0118286,
5328,-0.00183105,0.0117371,
5330,-0.00976563,0.0117798,
5332,-0.00915527,0.0118347,
5334,0.00427246,0.0117004,
5336,-0.00549316,0.0116028,
5338,-0.00610352,0.0116455,
5340,-0.00610352,0.0115967,
5342,-0.00671387,0.0116394,
5344,-0.00183105,0.0115051,
5346,-0.00610352,0.0113464,
5348,-0.010376,0.0114319,
5350,-0.00366211,0.0114319,
5352,0.00793457,0.011499,
5354,-0.0213623,0.0116638,
5356,-0.00732422,0.0115051,
5358,0.00854492,0.0114685,
5360,-0.00671387,0.0115234,
5362,-0.0109863,0.0115967,
5364,-0.00732422,0.0114868,
5366,-0.00915527,0.0115356,
5368,0.00183105,0.0113953,
5370,-0.0152588,0.0114624,
5372,0.00549316,0.0113708,
5374,-0.0109863,0.011377,
5376,-0.00854492,0.011438,
5378,0,0.0112549,
5380,-0.00183105,0.0112061,
5382,-0.0134277,0.0110046,
5384,-0.0134277,0.0110779,
5386,-0.00549316,0.0108765,
5388,-0.00671387,0.0107971,
5390,-0.00976563,0.0107971,
5392,-0.00915527,0.0106995,
5394,-0.00915527,0.0106445,
5396,-0.00549316,0.0105286,
5398,-0.00610352,0.0103943,
5400,-0.00732422,0.0103821,
5402,-0.000610352,0.0102539,
5404,-0.00549316,0.0101501,
5406,-0.00610352,0.0101135,
5408,0,0.00993042,
5410,-0.0115967,0.00991821,
5412,-0.00793457,0.00983276,
5414,-0.00305176,0.00967407,
5416,0.0012207,0.00949097,
5418,-0.00915527,0.00933228,
5420,-0.00854492,0.00923462,
5422,-0.00915527,0.00910645,
5424,-0.00671387,0.00903931,
5426,-0.00793457,0.00882568,
5428,-0.00793457,0.00875244,
5430,-0.00976563,0.00869141,
5432,-0.00610352,0.00863037,
5434,-0.0146484,0.00863647,
5436,-0.00488281,0.00853882,
5438,-0.0012207,0.00843506,
5440,-0.0177002,0.0085083,
5442,-0.0109863,0.00861206,
5444,-0.00366211,0.00852051,
5446,-0.00549316,0.00855713,
5448,-0.00732422,0.00855713,
5450,-0.020752,0.00864868,
5452,0.00366211,0.00863647,
5454,-0.0109863,0.00872803,
5456,0.00183105,0.00872803,
5458,-0.0164795,0.00881958,
5460,-0.00610352,0.00884399,
5462,-0.00305176,0.00881348,
5464,0,0.00872803,
5466,-0.0170898,0.00861816,
5468,-0.00549316,0.00866699,
5470,-0.00549316,0.0086853,
5472,-0.00732422,0.00872803,
5474,-0.0012207,0.00871582,
5476,-0.0170898,0.00876465,
5478,-0.00732422,0.00869751,
5480,-0.00244141,0.00864258,
5482,-0.00854492,0.00856934,
5484,-0.00488281,0.00856934,
5486,-0.0134277,0.00838013,
5488,-0.00610352,0.00843506,
5490,-0.0012207,0.00839233,
5492,-0.010376,0.00839233,
5494,-0.00549316,0.00829468,
5496,-0.00610352,0.00821533,
5498,-0.010376,0.0081543,
5500,-0.00305176,0.00805054,
5502,-0.00732422,0.0079834,
5504,-0.00793457,0.00791626,
5506,-0.00610352,0.00789795,
5508,-0.010376,0.00789795,
5510,-0.00488281,0.00776978,
5512,-0.00915527,0.00778198,
5514,-0.00732422,0.00776367,
5516,-0.00549316,0.00759888,
5518,-0.00488281,0.00755005,
5520,-0.00915527,0.00752563,
5522,-0.00549316,0.00749512,
5524,-0.00244141,0.00736694,
5526,-0.00732422,0.00731812,
5528,-0.00854492,0.00738525,
5530,-0.00305176,0.00731812,
5532,-0.00671387,0.0072937,
5534,-0.00732422,0.00732422,
5536,-0.00183105,0.0072876,
5538,-0.012207,0.00734863,
5540,-0.00854492,0.00737305,
5542,0,0.00730591,
5544,-0.00793457,0.00736694,
5546,-0.00793457,0.00738525,
5548,-0.00366211,0.00731812,
5550,-0.00793457,0.00736084,
5552,-0.00549316,0.00733643,
5554,-0.00610352,0.00718384,
5556,-0.00915527,0.00720215,
5558,0.00366211,0.00715332,
5560,-0.00732422,0.00715942,
5562,-0.00732422,0.0071228,
5564,-0.00244141,0.00707397,
5566,-0.00305176,0.00701294,
5568,-0.00610352,0.00705566,
5570,-0.00427246,0.0069458,
5572,-0.00183105,0.00690918,
5574,-0.00427246,0.00684204,
5576,-0.00427246,0.00679932,
5578,-0.00793457,0.00687866,
5580,-0.0109863,0.00697021,
5582,-0.000610352,0.00684204,
5584,-0.00488281,0.00675659,
5586,0,0.00670166,
5588,-0.00793457,0.00671387,
5590,-0.00549316,0.00667114,
5592,0.00610352,0.00664063,
5594,-0.00854492,0.00663452,
5596,-0.00305176,0.00661011,
5598,0.000610352,0.00655518,
5600,-0.00488281,0.00653076,
5602,-0.00427246,0.00656738,
5604,-0.00793457,0.0065918,
5606,-0.00305176,0.00656128,
5608,-0.00549316,0.00661621,
5610,-0.00488281,0.00654907,
5612,-0.00610352,0.00653076,
5614,-0.010376,0.006604,
5616,-0.00244141,0.00661621,
5618,-0.00488281,0.00657349,
5620,-0.00610352,0.00654907,
5622,-0.00671387,0.00652466,
5624,-0.00671387,0.00652466,
5626,-0.00671387,0.00651245,
5628,-0.0012207,0.00644531,
5630,-0.00244141,0.00637207,
5632,-0.0128174,0.00643921,
5634,-0.00366211,0.00632935,
5636,0.000610352,0.00628662,
5638,-0.00915527,0.00636597,
5640,-0.00854492,0.00627441,
5642,-0.00671387,0.00623169,
5644,-0.00671387,0.00626221,
5646,-0.00854492,0.00629272,
5648,-0.00915527,0.00631104,
5650,-0.00976563,0.00620117,
5652,-0.00671387,0.00623169,
5654,-0.00427246,0.00616455,
5656,-0.00915527,0.00623779,
5658,-0.00793457,0.00615234,
5660,-0.00793457,0.00617065,
5662,0.00488281,0.00618896,
5664,-0.00915527,0.00628052,
5666,-0.0115967,0.00622559,
5668,-0.00366211,0.00620728,
5670,-0.010376,0.0062561,
5672,-0.00366211,0.00621948,
5674,-0.00244141,0.00623169,
5676,-0.00854492,0.00614624,
5678,-0.00549316,0.00612793,
5680,-0.00671387,0.00617065,
5682,-0.000610352,0.00609131,
5684,-0.00427246,0.00608521,
5686,-0.00488281,0.00599976,
5688,-0.00488281,0.00598755,
5690,-0.00427246,0.00601807,
5692,-0.00610352,0.00597534,
5694,-0.00244141,0.00594482,
5696,-0.0128174,0.00601196,
5698,-0.00244141,0.00593262,
5700,-0.00610352,0.00596313,
5702,-0.00671387,0.00595703,
5704,0.00244141,0.0059021,
5706,-0.00915527,0.00593262,
5708,-0.00488281,0.00587769,
5710,-0.00671387,0.005896,
5712,-0.00183105,0.00582275,
5714,-0.00732422,0.00582275,
5716,-0.00732422,0.00584106,
5718,-0.00549316,0.00584717,
5720,-0.00610352,0.00581665,
5722,-0.00549316,0.00581665,
5724,-0.00549316,0.00584717,
5726,0,0.00577393,
5728,-0.010376,0.00579224,
5730,-0.00854492,0.00584717,
5732,0,0.00578003,
5734,-0.00976563,0.00580444,
5736,-0.00915527,0.00587769,
5738,-0.00488281,0.00580444,
5740,-0.00671387,0.00578613,
5742,-0.00427246,0.00582886,
5744,-0.0140381,0.00588989,
5746,-0.00244141,0.00583496,
5748,0,0.00579834,
5750,-0.0115967,0.00583496,
5752,-0.00488281,0.00582886,
5754,-0.00610352,0.00582886,
5756,-0.00793457,0.00581665,
5758,-0.00671387,0.00584717,
5760,-0.010376,0.00587769,
5762,-0.00793457,0.00588379,
5764,-0.00671387,0.00592651,
5766,-0.0115967,0.00601196,
5768,-0.00732422,0.00602417,
5770,-0.00976563,0.0060791,
5772,-0.00671387,0.00612793,
5774,-0.00549316,0.00614014,
5776,-0.00671387,0.00616455,
5778,-0.00671387,0.00615234,
5780,-0.00305176,0.006073,
5782,-0.00244141,0.00609131,
5784,-0.0115967,0.00615845,
5786,-0.00793457,0.00623779,
5788,-0.0012207,0.00617065,
5790,-0.012207,0.00623779,
5792,-0.00610352,0.00623779,
5794,-0.00610352,0.00621338,
5796,-0.00915527,0.00627441,
5798,-0.00793457,0.00634766,
5800,-0.0012207,0.00631104,
5802,-0.0109863,0.00637817,
5804,-0.00244141,0.00632324,
5806,-0.00366211,0.00632935,
5808,-0.00488281,0.00632324,
5810,-0.0115967,0.00639038,
5812,-0.00793457,0.00640869,
5814,-0.00366211,0.00634155,
5816,-0.00976563,0.00641479,
5818,-0.0109863,0.00647583,
5820,-0.0109863,0.00652466,
5822,-0.012207,0.00657959,
5824,-0.00671387,0.00657959,
5826,-0.00671387,0.00657959,
5828,-0.00915527,0.00665894,
5830,-0.0128174,0.0067627,
5832,-0.00427246,0.00667725,
5834,-0.00854492,0.00672607,
5836,-0.00732422,0.00679321,
5838,-0.00976563,0.00679932,
5840,-0.00732422,0.00678711,
5842,-0.0115967,0.00683594,
5844,-0.00549316,0.00682373,
5846,-0.0109863,0.00684814,
5848,-0.00915527,0.00684814,
5850,-0.00610352,0.00681152,
5852,-0.00854492,0.00682983,
5854,-0.00793457,0.00686646,
5856,-0.00671387,0.00684204,
5858,-0.00732422,0.00683594,
5860,-0.00488281,0.00680542,
5862,-0.00793457,0.00683594,
5864,-0.00854492,0.00682983,
5866,-0.00793457,0.00679321,
5868,-0.00671387,0.00682373,
5870,-0.00610352,0.00678101,
5872,-0.00732422,0.00681763,
5874,-0.00671387,0.00686035,
5876,-0.00915527,0.00686646,
5878,-0.00366211,0.00684814,
5880,-0.00305176,0.00681152,
5882,-0.00854492,0.00689087,
5884,-0.00366211,0.00688477,
5886,-0.00488281,0.00688477,
5888,-0.00671387,0.00690308,
5890,-0.010376,0.00696411,
5892,-0.00488281,0.0069519,
5894,-0.00610352,0.00698853,
5896,-0.00915527,0.0069519,
5898,-0.00549316,0.00698242,
5900,-0.00610352,0.00698242,
5902,-0.00671387,0.00698242,
5904,-0.00915527,0.00704956,
5906,-0.00732422,0.00703125,
5908,-0.00610352,0.00704346,
5910,-0.00366211,0.00701294,
5912,-0.0109863,0.00710449,
5914,-0.00854492,0.0071167,
5916,-0.00671387,0.0071106,
5918,-0.010376,0.00715942,
5920,-0.0134277,0.00723267,
5922,-0.00549316,0.00723267,
5924,-0.00671387,0.00724487,
5926,-0.00793457,0.00732422,
5928,-0.0109863,0.00733032,
5930,-0.00610352,0.00730591,
5932,-0.00915527,0.00739746,
5934,-0.00366211,0.00733643,
5936,-0.00976563,0.00734253,
5938,-0.00610352,0.00735474,
5940,-0.00854492,0.00737305,
5942,-0.010376,0.00743408,
5944,-0.00976563,0.00739136,
5946,-0.00610352,0.00742798,
5948,-0.00183105,0.00744629,
5950,-0.00854492,0.00741577,
5952,-0.00854492,0.00745239,
5954,-0.00366211,0.00742798,
5956,-0.0109863,0.0074585,
5958,-0.00549316,0.00744629,
5960,-0.00366211,0.00737915,
5962,-0.00671387,0.00736694,
5964,-0.00610352,0.00736084,
5966,-0.00671387,0.00731201,
5968,-0.00732422,0.00731201,
5970,-0.00549316,0.00726929,
5972,-0.00732422,0.00727539,
5974,-0.00427246,0.00726318,
5976,-0.00305176,0.00722656,
5978,-0.00732422,0.00723267,
5980,-0.00671387,0.00726929,
5982,-0.0109863,0.00735474,
5984,-0.00305176,0.00726929,
5986,-0.00854492,0.00727539,
5988,-0.00793457,0.00734253,
5990,-0.00854492,0.00730591,
5992,-0.00976563,0.00734253,
5994,-0.00305176,0.00731201,
5996,-0.010376,0.00732422,
5998,-0.00793457,0.00732422,
6000,-0.00427246,0.00735474,
6002,-0.010376,0.00734863,
6004,-0.00915527,0.00741577,
6006,-0.00671387,0.00744629,
6008,-0.00915527,0.00748901,
6010,-0.00732422,0.00744629,
6012,-0.00610352,0.00742798,
6014,-0.00732422,0.0074646,
6016,-0.00671387,0.00743408,
6018,-0.00488281,0.00737305,
6020,-0.00793457,0.00734253,
6022,-0.00427246,0.00726318,
6024,-0.00610352,0.00725708,
6026,-0.00671387,0.00725708,
6028,-0.00427246,0.00720825,
6030,-0.00854492,0.00716553,
6032,-0.00549316,0.00717773,
6034,-0.00488281,0.00714111,
6036,-0.00549316,0.0071228,
6038,-0.00732422,0.00709839,
6040,-0.00610352,0.00708618,
6042,-0.00854492,0.00705566,
6044,-0.00549316,0.00705566,
6046,-0.00366211,0.00698242,
6048,-0.0012207,0.00690308,
6050,-0.0115967,0.00695801,
6052,-0.00793457,0.0069519,
6054,0.00305176,0.00690308,
6056,-0.00549316,0.00689087,
6058,-0.012207,0.0069397,
6060,-0.00427246,0.00693359,
6062,-0.00732422,0.00692749,
6064,-0.00793457,0.00692139,
6066,-0.00793457,0.00692139,
6068,-0.00793457,0.00693359,
6070,-0.00854492,0.00695801,
6072,0.00183105,0.00690308,
6074,-0.00793457,0.00691528,
6076,-0.00732422,0.00689697,
6078,-0.00732422,0.00693359,
6080,-0.00244141,0.00692749,
6082,-0.00671387,0.00690918,
6084,-0.00732422,0.0069458,
6086,-0.010376,0.00700073,
6088,0.00305176,0.00696411,
6090,-0.00244141,0.00688477,
6092,-0.0146484,0.00698242,
6094,-0.00183105,0.0069397,
6096,-0.00427246,0.00689087,
6098,-0.00732422,0.00690918,
6100,-0.00610352,0.00690918,
6102,-0.00915527,0.00693359,
6104,-0.00915527,0.00693359,
6106,-0.00976563,0.00695801,
6108,-0.00671387,0.00696411,
6110,-0.00732422,0.00700073,
6112,-0.00793457,0.00697021,
6114,-0.00732422,0.00695801,
6116,-0.00671387,0.00695801,
6118,-0.00854492,0.0069397,
6120,-0.00427246,0.00684814,
6122,-0.00732422,0.00686646,
6124,-0.00549316,0.00685425,
6126,-0.00915527,0.00686646,
6128,-0.000610352,0.0067627,
6130,-0.0109863,0.00681152,
6132,-0.00427246,0.0067627,
6134,-0.00671387,0.00679321,
6136,-0.00549316,0.00675049,
6138,-0.00549316,0.00674438,
6140,-0.00488281,0.00670776,
6142,-0.00427246,0.00664673,
6144,-0.00244141,0.00657349,
6146,-0.00549316,0.00656738,
6148,-0.00915527,0.00664063,
6150,-0.00244141,0.00657959,
6152,-0.00915527,0.00658569,
6154,-0.00183105,0.00656738,
6156,-0.00610352,0.00651855,
6158,-0.0115967,0.00657959,
6160,-0.00793457,0.00662231,
6162,-0.00549316,0.00661011,
6164,-0.00854492,0.00663452,
6166,-0.00793457,0.00664673,
6168,-0.00976563,0.00667114,
6170,-0.00915527,0.00670776,
6172,-0.00732422,0.00670776,
6174,-0.00976563,0.0067627,
6176,-0.00549316,0.00678711,
6178,-0.00976563,0.00681152,
6180,-0.010376,0.00684814,
6182,0.00976563,0.00683594,
6184,-0.0152588,0.00695801,
6186,-0.00732422,0.0069458,
6188,-0.00549316,0.00692139,
6190,-0.00549316,0.00689087,
6192,-0.00488281,0.00684204,
6194,-0.00610352,0.00687256,
6196,-0.0109863,0.00687866,
6198,-0.00488281,0.00684814,
6200,-0.00793457,0.00688477,
6202,-0.00366211,0.00681763,
6204,-0.00366211,0.0067627,
6206,-0.010376,0.00679932,
6208,-0.00793457,0.00678711,
6210,-0.00427246,0.00675659,
6212,-0.00549316,0.00675049,
6214,0.000610352,0.00668335,
6216,-0.010376,0.00671997,
6218,-0.00915527,0.0067627,
6220,-0.00244141,0.00670776,
6222,-0.00549316,0.00671997,
6224,-0.00488281,0.00670776,
6226,-0.0115967,0.00675659,
6228,-0.00915527,0.00680542,
6230,-0.00732422,0.00679321,
6232,-0.00915527,0.00682983,
6234,-0.00671387,0.00684814,
6236,-0.00854492,0.00687866,
6238,-0.00793457,0.00688477,
6240,-0.00732422,0.00689697,
6242,-0.00793457,0.00689087,
6244,-0.00549316,0.00689087,
6246,-0.00488281,0.00690308,
6248,-0.00976563,0.00698853,
6250,-0.00488281,0.00692139,
6252,-0.00488281,0.00689087,
6254,-0.00549316,0.00691528,
6256,-0.00610352,0.00692139,
6258,-0.00732422,0.00687256,
6260,-0.00610352,0.00689087,
6262,-0.00549316,0.00687256,
6264,-0.00549316,0.00684814,
6266,-0.0115967,0.00688477,
6268,-0.0012207,0.00681763,
6270,-0.00732422,0.00680542,
6272,-0.00976563,0.00688477,
6274,-0.00488281,0.00685425,
6276,-0.00488281,0.00682983,
6278,-0.00488281,0.00680542,
6280,-0.00671387,0.00684814,
6282,-0.00610352,0.00684204,
6284,-0.00915527,0.00686035,
6286,-0.00305176,0.00678711,
6288,-0.00183105,0.0067749,
6290,-0.010376,0.00685425,
6292,-0.00549316,0.0067627,
6294,-0.00671387,0.00681152,
6296,-0.00732422,0.00684204,
6298,-0.00488281,0.00681763,
6300,-0.00732422,0.00682983,
6302,-0.00610352,0.00679932,
6304,-0.00671387,0.0067749,
6306,-0.00732422,0.00675049,
6308,-0.00549316,0.00673828,
6310,-0.00427246,0.00670776,
6312,-0.00610352,0.00668945,
6314,-0.00183105,0.00663452,
6316,-0.00915527,0.00665894,
6318,-0.00305176,0.006604,
6320,-0.00854492,0.00664673,
6322,-0.00366211,0.00661011,
6324,-0.00488281,0.006604,
6326,-0.00915527,0.006604,
6328,-0.00549316,0.00665283,
6330,-0.00610352,0.006604,
6332,-0.00793457,0.00664063,
6334,-0.00488281,0.00662231,
6336,-0.00854492,0.00665283,
6338,-0.00610352,0.00665894,
6340,-0.00854492,0.00669556,
6342,-0.00732422,0.00672607,
6344,-0.00732422,0.0067749,
6346,-0.0109863,0.00682983,
6348,-0.00427246,0.00678101,
6350,-0.00732422,0.00682983,
6352,-0.00915527,0.00682983,
6354,-0.00732422,0.00688477,
6356,-0.00915527,0.00691528,
6358,-0.00854492,0.00688477,
6360,-0.00854492,0.00689087,
6362,-0.0115967,0.0069519,
6364,-0.00915527,0.00695801,
6366,-0.00915527,0.00697021,
6368,-0.00915527,0.00696411,
6370,-0.00305176,0.00690308,
6372,-0.0134277,0.00696411,
6374,-0.00610352,0.00692749,
6376,-0.00549316,0.00692749,
6378,-0.00671387,0.00689697,
6380,-0.00793457,0.00687256,
6382,-0.00671387,0.00684204,
6384,-0.00671387,0.00675659,
6386,-0.00610352,0.00674438,
6388,-0.00610352,0.00675049,
6390,-0.00366211,0.00673218,
6392,-0.0128174,0.00681152,
6394,0.0012207,0.0067627,
6396,-0.0109863,0.0067627,
6398,-0.00732422,0.00678711,
6400,-0.00732422,0.00678101,
6402,-0.00793457,0.00682373,
6404,-0.00732422,0.00686035,
6406,-0.0109863,0.00686646,
6408,-0.00976563,0.00688477,
6410,-0.00915527,0.00693359,
6412,-0.010376,0.00698242,
6414,-0.00549316,0.00703125,
6416,-0.00854492,0.00701294,
6418,-0.00915527,0.00701294,
6420,-0.00549316,0.00704346,
6422,-0.00915527,0.00708008,
6424,-0.00549316,0.00708618,
6426,-0.0128174,0.00709839,
6428,-0.00366211,0.00704346,
6430,-0.00976563,0.00706787,
6432,-0.00671387,0.00704346,
6434,-0.00793457,0.00705566,
6436,-0.00793457,0.00704956,
6438,-0.00244141,0.00699463,
6440,-0.00793457,0.00700073,
6442,-0.00976563,0.00701904,
6444,-0.00854492,0.00704956,
6446,-0.00488281,0.00704956,
6448,-0.00915527,0.00704346,
6450,-0.00671387,0.00706177,
6452,-0.0115967,0.00712891,
6454,-0.00427246,0.0071167,
6456,-0.00427246,0.00709839,
6458,-0.0128174,0.00715332,
6460,-0.00366211,0.00712891,
6462,-0.00732422,0.00714722,
6464,-0.00732422,0.00716553,
6466,-0.0109863,0.00715942,
6468,-0.00305176,0.00717773,
6470,-0.00976563,0.00720215,
6472,-0.00915527,0.00719604,
6474,-0.00305176,0.00717773,
6476,-0.0115967,0.00724487,
6478,-0.00183105,0.00721436,
6480,-0.00610352,0.00720825,
6482,-0.00793457,0.00722656,
6484,-0.00732422,0.00720825,
6486,-0.00610352,0.00723877,
6488,-0.00732422,0.0072937,
6490,-0.00610352,0.00725098,
6492,-0.00610352,0.00725708,
6494,-0.00610352,0.00725098,
6496,-0.00610352,0.00723877,
6498,-0.00732422,0.00726318,
6500,-0.00549316,0.00724487,
6502,-0.0012207,0.00719604,
6504,-0.0115967,0.00724487,
6506,-0.00610352,0.00723267,
6508,-0.0109863,0.0072876,
6510,-0.00244141,0.00726929,
6512,-0.00732422,0.00728149,
6514,-0.00549316,0.00731812,
6516,-0.00732422,0.0072998,
6518,-0.00244141,0.0072937,
6520,0,0.00720825,
6522,0.000610352,0.00717773,
6524,-0.00915527,0.00722046,
6526,-0.00366211,0.00716553,
6528,-0.00305176,0.00714111,
6530,-0.00549316,0.00713501,
6532,-0.00671387,0.0071228,
6534,-0.00610352,0.00713501,
6536,-0.00732422,0.0071228,
6538,-0.00854492,0.00714722,
6540,-0.00671387,0.00712891,
6542,-0.00793457,0.00713501,
6544,-0.00671387,0.00712891,
6546,-0.00549316,0.00707397,
6548,-0.00488281,0.00708008,
6550,-0.00671387,0.00707397,
6552,-0.00732422,0.00705566,
6554,-0.00488281,0.00703125,
6556,-0.00549316,0.00699463,
6558,-0.00488281,0.00695801,
6560,-0.00671387,0.0069397,
6562,-0.00671387,0.00689087,
6564,-0.00549316,0.00685425,
6566,0,0.0067627,
6568,-0.00549316,0.00672607,
6570,-0.00671387,0.0067627,
6572,-0.00488281,0.00667725,
6574,0.0012207,0.00662842,
6576,-0.00854492,0.00665894,
6578,0.00183105,0.00661011,
6580,-0.00305176,0.00656128,
6582,-0.00915527,0.00658569,
6584,-0.00793457,0.0065979,
6586,-0.00305176,0.00656738,
6588,-0.00488281,0.00655518,
6590,-0.00488281,0.00656738,
6592,-0.0140381,0.00657959,
6594,0.00183105,0.00658569,
6596,-0.00671387,0.00654297,
6598,-0.010376,0.00657349,
6600,-0.00793457,0.00657959,
6602,-0.00488281,0.00654907,
6604,-0.00427246,0.00651855,
6606,-0.00854492,0.00649414,
6608,-0.0109863,0.00650635,
6610,-0.00671387,0.00648193,
6612,-0.010376,0.00648193,
6614,-0.00488281,0.00647583,
6616,-0.00366211,0.006427,
6618,-0.012207,0.00645752,
6620,-0.00427246,0.00644531,
6622,-0.00854492,0.00643921,
6624,-0.00488281,0.00643311,
6626,-0.00854492,0.00639038,
6628,-0.00610352,0.00641479,
6630,-0.0109863,0.006427,
6632,-0.00732422,0.00643311,
6634,-0.00732422,0.006427,
6636,-0.00854492,0.00643311,
6638,-0.00854492,0.00649414,
6640,-0.00610352,0.00647583,
6642,-0.00732422,0.00645142,
6644,-0.00549316,0.0064209,
6646,-0.0128174,0.00650024,
6648,-0.00610352,0.00646973,
6650,-0.00610352,0.00646362,
6652,-0.00427246,0.00639038,
6654,-0.0128174,0.00647583,
6656,-0.00976563,0.00653076,
6658,-0.00915527,0.00649414,
6660,-0.00793457,0.00653687,
6662,-0.00854492,0.00654907,
6664,-0.0115967,0.0065918,
6666,-0.00671387,0.00654907,
6668,-0.0134277,0.00665283,
6670,-0.00671387,0.00662231,
6672,-0.00732422,0.006604,
6674,-0.00793457,0.00665283,
6676,-0.00732422,0.00661011,
6678,-0.00854492,0.00667725,
6680,-0.00488281,0.00666504,
6682,-0.010376,0.00668945,
6684,-0.00366211,0.00665283,
6686,-0.010376,0.00669556,
6688,-0.00549316,0.00667725,
6690,-0.00549316,0.00667114,
6692,-0.00244141,0.00663452,
6694,-0.0128174,0.00670166,
6696,-0.0115967,0.00675659,
6698,-0.00183105,0.00670166,
6700,-0.00610352,0.00670776,
6702,-0.0115967,0.00681152,
6704,-0.00854492,0.00678101,
6706,-0.0115967,0.00683594,
6708,-0.00976563,0.00682373,
6710,-0.012207,0.00692139,
6712,-0.010376,0.0069519,
6714,-0.0109863,0.00700684,
6716,-0.00976563,0.00703125,
6718,-0.00610352,0.00706787,
6720,-0.00671387,0.00713501,
6722,-0.00793457,0.00720825,
6724,-0.00793457,0.00719604,
6726,-0.0012207,0.00717163,
6728,-0.00915527,0.00723267,
6730,-0.00976563,0.00727539,
6732,-0.00305176,0.00723877,
6734,-0.00549316,0.00723267,
6736,-0.00671387,0.00722656,
6738,-0.00976563,0.00723877,
6740,-0.010376,0.00727539,
6742,-0.00671387,0.00726318,
6744,-0.00915527,0.0072876,
6746,-0.00793457,0.00731201,
6748,-0.010376,0.00736694,
6750,-0.00793457,0.00737915,
6752,-0.00915527,0.00739746,
6754,-0.00915527,0.00744019,
6756,-0.00976563,0.00748291,
6758,-0.00427246,0.00747681,
6760,-0.00305176,0.00744019,
6762,-0.0128174,0.00750122,
6764,-0.00976563,0.00754395,
6766,-0.00244141,0.00756836,
6768,-0.00854492,0.00759888,
6770,-0.00854492,0.00761719,
6772,-0.00732422,0.0076416,
6774,-0.00976563,0.00772705,
6776,-0.00915527,0.00773315,
6778,-0.00671387,0.00778198,
6780,-0.00854492,0.00783691,
6782,-0.00793457,0.00782471,
6784,-0.00366211,0.00778198,
6786,-0.012207,0.00787354,
6788,-0.00610352,0.00788574,
6790,-0.00854492,0.00792236,
6792,-0.00671387,0.00784912,
6794,-0.00488281,0.00787964,
6796,-0.012207,0.00793457,
6798,-0.0109863,0.00794067,
6800,-0.00427246,0.00790405,
6802,-0.00549316,0.00791016,
6804,-0.00976563,0.00796509,
6806,-0.010376,0.0079834,
6808,-0.00793457,0.00795288,
6810,-0.00854492,0.00797119,
6812,-0.0128174,0.00799561,
6814,-0.00854492,0.00803223,
6816,-0.00854492,0.00808105,
6818,-0.0134277,0.00809326,
6820,-0.00854492,0.00813599,
6822,-0.012207,0.00817261,
6824,-0.00732422,0.00819702,
6826,-0.00793457,0.00819092,
6828,-0.00732422,0.00820313,
6830,-0.0115967,0.00820923,
6832,-0.0134277,0.00827026,
6834,-0.0012207,0.00820923,
6836,-0.00549316,0.00817871,
6838,-0.00915527,0.00818481,
6840,-0.0152588,0.00827637,
6842,-0.000610352,0.00820923,
6844,-0.00793457,0.00823364,
6846,-0.00976563,0.00820313,
6848,-0.00732422,0.00821533,
6850,-0.00915527,0.00824585,
6852,-0.0109863,0.00831299,
6854,-0.010376,0.00828857,
6856,-0.010376,0.00829468,
6858,-0.00854492,0.00828857,
6860,-0.0128174,0.0083374,
6862,-0.0134277,0.00838623,
6864,-0.00915527,0.00836182,
6866,-0.0012207,0.00830688,
6868,-0.012207,0.00829468,
6870,-0.0140381,0.00836792,
6872,-0.00854492,0.00838013,
6874,-0.00671387,0.00836792,
6876,-0.0109863,0.00840454,
6878,-0.00549316,0.00837402,
6880,-0.00549316,0.00838013,
6882,-0.0128174,0.00840454,
6884,-0.00793457,0.00844727,
6886,-0.00610352,0.00840454,
6888,-0.00427246,0.00839233,
6890,-0.0109863,0.00844727,
6892,-0.00793457,0.0085022,
6894,-0.00671387,0.00844116,
6896,-0.00610352,0.00838623,
6898,-0.00854492,0.00845337,
6900,-0.00671387,0.00845947,
6902,-0.00671387,0.00841064,
6904,-0.010376,0.00842896,
6906,-0.00732422,0.00838623,
6908,-0.00793457,0.00836792,
6910,-0.00915527,0.0083374,
6912,-0.00305176,0.00826416,
6914,-0.00854492,0.00823975,
6916,-0.00976563,0.00823975,
6918,-0.00915527,0.00827026,
6920,-0.00732422,0.00827637,
6922,-0.00915527,0.00828857,
6924,-0.00976563,0.00830688,
6926,-0.00793457,0.00837402,
6928,-0.0128174,0.00841064,
6930,-0.00549316,0.00836792,
6932,-0.0109863,0.00844727,
6934,-0.00732422,0.00846558,
6936,-0.00671387,0.00846558,
6938,-0.00671387,0.00843506,
6940,-0.012207,0.00845337,
6942,-0.00427246,0.00842896,
6944,-0.00671387,0.00840454,
6946,-0.010376,0.00842896,
6948,-0.0109863,0.00843506,
6950,-0.00671387,0.00842285,
6952,-0.00488281,0.00838013,
6954,-0.0134277,0.00842285,
6956,-0.00732422,0.00839844,
6958,-0.0109863,0.00846558,
6960,-0.00793457,0.0085144,
6962,-0.0115967,0.0085022,
6964,-0.00915527,0.00849609,
6966,-0.00793457,0.00855103,
6968,-0.00915527,0.00855713,
6970,-0.00915527,0.00856323,
6972,-0.00549316,0.00854492,
6974,-0.00915527,0.00853882,
6976,-0.00610352,0.0085083,
6978,-0.00305176,0.00847168,
6980,-0.00915527,0.00847778,
6982,-0.00610352,0.00845947,
6984,-0.010376,0.00852661,
6986,-0.00793457,0.00848389,
6988,-0.00549316,0.00847778,
6990,-0.00854492,0.00847778,
6992,-0.0109863,0.00852051,
6994,-0.00793457,0.00855103,
6996,-0.00732422,0.0085022,
6998,-0.00671387,0.00845947,
7000,-0.00793457,0.00849609,
7002,-0.00671387,0.0085083,
7004,-0.00671387,0.00847778,
7006,-0.00488281,0.00842285,
7008,-0.00793457,0.00842285,
7010,-0.00549316,0.00839233,
7012,-0.00793457,0.00834351,
7014,-0.00549316,0.00831299,
7016,-0.00549316,0.00828247,
7018,-0.00427246,0.00819092,
7020,-0.00915527,0.00819702,
7022,-0.00366211,0.00811157,
7024,-0.00610352,0.00809937,
7026,-0.00549316,0.00807495,
7028,-0.00549316,0.00805664,
7030,-0.00671387,0.00800781,
7032,-0.00732422,0.00794678,
7034,-0.00732422,0.00800781,
7036,-0.010376,0.00805664,
7038,-0.00671387,0.00803223,
7040,-0.00244141,0.00790405,
7042,-0.0146484,0.00804443,
7044,-0.00732422,0.00803833,
7046,-0.00366211,0.00797729,
7048,-0.00793457,0.0079834,
7050,-0.00671387,0.00795898,
7052,-0.00732422,0.00792236,
7054,-0.00671387,0.00788574,
7056,-0.00671387,0.00784912,
7058,-0.00854492,0.00784912,
7060,-0.00732422,0.00779419,
7062,-0.010376,0.00776367,
7064,-0.00793457,0.00775146,
7066,-0.00610352,0.00780029,
7068,-0.010376,0.00778198,
7070,-0.0109863,0.00775146,
7072,-0.00671387,0.00773315,
7074,-0.00366211,0.00770264,
7076,-0.0115967,0.00770874,
7078,-0.0115967,0.00776978,
7080,-0.00488281,0.00776367,
7082,-0.010376,0.00773926,
7084,-0.00854492,0.00774536,
7086,-0.010376,0.00778809,
7088,-0.00915527,0.00783691,
7090,-0.00854492,0.0078125,
7092,-0.00976563,0.00783081,
7094,-0.00732422,0.00783691,
7096,-0.00976563,0.00787354,
7098,-0.00793457,0.00786743,
7100,-0.00610352,0.00786133,
7102,-0.00244141,0.0078186,
7104,-0.0158691,0.00787354,
7106,-0.00793457,0.00787964,
7108,-0.00732422,0.00787354,
7110,-0.00976563,0.00787964,
7112,-0.00488281,0.00789795,
7114,-0.0109863,0.00792236,
7116,-0.00915527,0.00791626,
7118,-0.00732422,0.00789795,
7120,-0.00610352,0.00788574,
7122,-0.00915527,0.00788574,
7124,-0.00610352,0.00784912,
7126,-0.00671387,0.00783691,
7128,-0.00854492,0.00779419,
7130,-0.00976563,0.00783691,
7132,-0.00976563,0.00782471,
7134,-0.00793457,0.00783081,
7136,-0.0109863,0.00787354,
7138,-0.00732422,0.00787964,
7140,-0.00915527,0.00784912,
7142,-0.0152588,0.00795898,
7144,-0.00183105,0.00791016,
7146,-0.00915527,0.00789795,
7148,-0.0109863,0.00789795,
7150,-0.00732422,0.00790405,
7152,-0.00976563,0.00795288,
7154,-0.00671387,0.00788574,
7156,-0.00976563,0.00791016,
7158,-0.00732422,0.00787354,
7160,-0.012207,0.00791626,
7162,-0.0140381,0.00794067,
7164,-0.00732422,0.00792236,
7166,-0.00915527,0.00793457,
7168,-0.0128174,0.00797119,
7170,-0.00976563,0.00797729,
7172,-0.0146484,0.00806885,
7174,-0.0115967,0.00809326,
7176,-0.00732422,0.00810547,
7178,-0.0115967,0.00819092,
7180,-0.0109863,0.00820923,
7182,-0.0128174,0.00827637,
7184,-0.012207,0.00829468,
7186,-0.0115967,0.0083313,
7188,-0.00976563,0.00837402,
7190,-0.00854492,0.00837402,
7192,-0.00915527,0.00835571,
7194,-0.00915527,0.00836792,
7196,-0.0109863,0.00840454,
7198,-0.00366211,0.00837402,
7200,-0.00549316,0.00834961,
7202,-0.00854492,0.00836792,
7204,-0.010376,0.00840454,
7206,-0.00671387,0.00842285,
7208,-0.00976563,0.00844116,
7210,-0.00671387,0.00845337,
7212,-0.00976563,0.00847168,
7214,-0.00244141,0.00844116,
7216,-0.0109863,0.00849609,
7218,-0.00488281,0.0085022,
7220,-0.00915527,0.0085022,
7222,-0.00366211,0.0085022,
7224,-0.00366211,0.00847778,
7226,-0.00427246,0.00846558,
7228,-0.00915527,0.0085022,
7230,-0.00427246,0.00847778,
7232,-0.00732422,0.00847778,
7234,-0.00732422,0.00847778,
7236,-0.00488281,0.00842285,
7238,-0.00427246,0.00839844,
7240,-0.00610352,0.00843506,
7242,-0.00915527,0.00838013,
7244,-0.00244141,0.0083313,
7246,-0.00793457,0.00837402,
7248,0.00183105,0.00831299,
7250,-0.00488281,0.00829468,
7252,-0.00854492,0.00830688,
7254,-0.00610352,0.00830078,
7256,-0.0012207,0.00824585,
7258,-0.00915527,0.00825195,
7260,-0.00793457,0.00825806,
7262,-0.0134277,0.00828857,
7264,-0.00671387,0.00827637,
7266,-0.00427246,0.00825806,
7268,-0.0158691,0.00831299,
7270,0,0.00820313,
7272,-0.012207,0.00825806,
7274,-0.00244141,0.00824585,
7276,-0.00732422,0.00820313,
7278,-0.00854492,0.00817261,
7280,-0.00854492,0.00820923,
7282,-0.00610352,0.0081665,
7284,-0.0128174,0.00820923,
7286,-0.00732422,0.00817871,
7288,-0.0115967,0.00820313,
7290,-0.00671387,0.00818481,
7292,-0.00671387,0.0081543,
7294,-0.00488281,0.00812988,
7296,-0.0115967,0.00814819,
7298,-0.00366211,0.00810547,
7300,-0.00427246,0.00808716,
7302,-0.00244141,0.00808716,
7304,-0.0109863,0.00803833,
7306,-0.00488281,0.00800781,
7308,-0.00366211,0.00797119,
7310,-0.00610352,0.00793457,
7312,-0.00793457,0.00796509,
7314,-0.0012207,0.00786743,
7316,-0.00549316,0.00783081,
7318,-0.00671387,0.00782471,
7320,-0.00610352,0.00782471,
7322,-0.0012207,0.00774536,
7324,-0.00549316,0.00773926,
7326,-0.00610352,0.00773315,
7328,-0.00366211,0.00768433,
7330,-0.0012207,0.00759888,
7332,-0.00549316,0.00755615,
7334,-0.00610352,0.00753784,
7336,-0.00976563,0.00752563,
7338,-0.00427246,0.00749512,
7340,-0.00427246,0.00744629,
7342,-0.00671387,0.00736084,
7344,-0.00793457,0.00742187,
7346,-0.00793457,0.00740967,
7348,-0.00549316,0.00735474,
7350,-0.00549316,0.00733643,
7352,-0.00732422,0.00731201,
7354,-0.00427246,0.0072876,
7356,-0.00915527,0.00728149,
7358,-0.00793457,0.0072876,
7360,-0.00183105,0.00718384,
7362,-0.012207,0.00716553,
7364,-0.010376,0.00719604,
7366,-0.00427246,0.00714722,
7368,-0.0140381,0.00715942,
7370,-0.00610352,0.0071228,
7372,-0.0164795,0.00714111,
7374,-0.00976563,0.0071228,
7376,-0.00427246,0.00709229,
7378,-0.00732422,0.00704956,
7380,-0.00976563,0.00703735,
7382,-0.00549316,0.00696411,
7384,-0.00854492,0.00692749,
7386,-0.00610352,0.00687256,
7388,-0.00793457,0.00685425,
7390,-0.00488281,0.00681763,
7392,-0.00915527,0.00681763,
7394,-0.00366211,0.0067627,
7396,-0.00549316,0.00670776,
7398,-0.00915527,0.0067627,
7400,-0.00549316,0.0067627,
7402,-0.0146484,0.00682373,
7404,0.00244141,0.00674438,
7406,-0.0109863,0.00678711,
7408,-0.00793457,0.0067688,
7410,-0.010376,0.00680542,
7412,-0.00732422,0.00678101,
7414,-0.00732422,0.00682983,
7416,-0.00976563,0.00681763,
7418,-0.00732422,0.00684204,
7420,-0.00854492,0.00683594,
7422,-0.00549316,0.00685425,
7424,-0.00915527,0.00690918,
7426,-0.00732422,0.0069397,
7428,-0.00671387,0.00691528,
7430,-0.00427246,0.00691528,
7432,-0.0109863,0.0069519,
7434,-0.00305176,0.00690918,
7436,-0.00610352,0.00692139,
7438,-0.00976563,0.00697632,
7440,-0.00854492,0.00700073,
7442,-0.00427246,0.0069519,
7444,-0.00305176,0.00695801,
7446,-0.0115967,0.00699463,
7448,-0.00854492,0.00706177,
7450,-0.00671387,0.00708008,
7452,-0.0109863,0.00710449,
7454,-0.00732422,0.0071167,
7456,-0.00976563,0.00720215,
7458,-0.0109863,0.00722046,
7460,-0.0115967,0.00725708,
7462,-0.00854492,0.00720825,
7464,-0.00732422,0.00721436,
7466,-0.00793457,0.00725098,
7468,-0.00732422,0.00716553,
7470,-0.00976563,0.00726318,
7472,-0.00549316,0.00719604,
7474,-0.00793457,0.00725098,
7476,-0.00732422,0.00725098,
7478,-0.00793457,0.00724487,
7480,-0.00732422,0.00723267,
7482,-0.00549316,0.00722656,
7484,-0.00549316,0.00715332,
7486,-0.0146484,0.00722656,
7488,-0.00366211,0.00714722,
7490,-0.00793457,0.00715942,
7492,-0.0195313,0.0072876,
7494,-0.00305176,0.00726929,
7496,-0.00854492,0.00723877,
7498,-0.010376,0.00730591,
7500,-0.0128174,0.00739136,
7502,-0.00366211,0.00740356,
7504,-0.00732422,0.00736694,
7506,-0.00549316,0.00737305,
7508,-0.00976563,0.00743408,
7510,-0.00366211,0.00740967,
7512,-0.00915527,0.00742187,
7514,-0.00549316,0.0074646,
7516,-0.00854492,0.00749512,
7518,-0.00671387,0.00749512,
7520,-0.00488281,0.00748291,
7522,-0.00549316,0.00752563,
7524,-0.010376,0.00757446,
7526,-0.0012207,0.00752563,
7528,-0.00366211,0.00752563,
7530,-0.00793457,0.00759277,
7532,-0.00427246,0.00758057,
7534,-0.00366211,0.00755615,
7536,-0.00854492,0.00754395,
7538,-0.00732422,0.00757446,
7540,-0.00732422,0.00760498,
7542,-0.00915527,0.00762939,
7544,-0.00549316,0.00760498,
7546,-0.00793457,0.00760498,
7548,-0.00732422,0.00762329,
7550,-0.00549316,0.00762329,
7552,-0.0134277,0.00768433,
7554,-0.0012207,0.00765381,
7556,-0.00671387,0.00762939,
7558,-0.012207,0.00767212,
7560,-0.00793457,0.00773315,
7562,-0.00793457,0.00769043,
7564,-0.00976563,0.00768433,
7566,-0.00915527,0.00773315,
7568,-0.00732422,0.00766602,
7570,-0.00793457,0.00768433,
7572,-0.0109863,0.00762939,
7574,-0.00854492,0.00761719,
7576,-0.0109863,0.00768433,
7578,-0.0146484,0.00775757,
7580,-0.00366211,0.00769653,
7582,-0.012207,0.00776367,
7584,-0.00915527,0.00776978,
7586,-0.00305176,0.00773926,
7588,-0.0109863,0.00776978,
7590,-0.00427246,0.00776367,
7592,-0.00793457,0.00775146,
7594,-0.00366211,0.00775146,
7596,-0.00671387,0.00776367,
7598,-0.00854492,0.00775757,
7600,-0.00671387,0.00776978,
7602,-0.00732422,0.00769653,
7604,-0.00854492,0.00775757,
7606,-0.00488281,0.00769653,
7608,-0.00732422,0.00769043,
7610,-0.00793457,0.00766602,
7612,-0.00732422,0.00766602,
7614,-0.00732422,0.00766602,
7616,-0.00793457,0.00764771,
7618,-0.00915527,0.00766602,
7620,-0.0109863,0.00769043,
7622,-0.010376,0.00773926,
7624,-0.00183105,0.00766602,
7626,-0.00854492,0.00767822,
7628,-0.00976563,0.00770874,
7630,-0.00549316,0.00772095,
7632,-0.00976563,0.00770874,
7634,-0.00671387,0.00774536,
7636,-0.010376,0.00778809,
7638,-0.00793457,0.00776978,
7640,-0.00793457,0.00776367,
7642,-0.0115967,0.00783691,
7644,-0.00732422,0.00787964,
7646,-0.00671387,0.00783081,
7648,-0.0140381,0.00788574,
7650,-0.00305176,0.00784912,
7652,-0.00732422,0.0078125,
7654,-0.00610352,0.00780029,
7656,-0.0134277,0.00783691,
7658,-0.00610352,0.00778809,
7660,-0.0109863,0.00778198,
7662,-0.0115967,0.0078125,
7664,-0.00549316,0.00779419,
7666,-0.00793457,0.00779419,
7668,-0.00244141,0.00774536,
7670,-0.0158691,0.0078064,
7672,-0.00366211,0.00778809,
7674,-0.00671387,0.00777588,
7676,-0.00671387,0.00776978,
7678,-0.00610352,0.00775146,
7680,-0.012207,0.00780029,
7682,-0.0109863,0.00785522,
7684,-0.0140381,0.00794067,
7686,-0.00488281,0.00784302,
7688,-0.00915527,0.00789795,
7690,-0.00793457,0.00789795,
7692,-0.0140381,0.00784302,
7694,-0.00427246,0.00785522,
7696,-0.0128174,0.00789795,
7698,-0.00671387,0.00786133,
7700,-0.00793457,0.0078125,
7702,-0.00976563,0.00787354,
7704,-0.00976563,0.00789795,
7706,-0.00610352,0.00790405,
7708,-0.00732422,0.00787964,
7710,-0.00732422,0.00791626,
7712,-0.00671387,0.00789185,
7714,-0.00549316,0.00789185,
7716,-0.00549316,0.00786133,
7718,-0.00671387,0.00786133,
7720,-0.00793457,0.00789185,
7722,-0.00671387,0.00790405,
7724,-0.00793457,0.00787964,
7726,-0.00427246,0.00791016,
7728,-0.00793457,0.00795288,
7730,-0.012207,0.00799561,
7732,-0.00732422,0.00802612,
7734,-0.00610352,0.00805054,
7736,-0.00183105,0.0079834,
7738,-0.0128174,0.00803833,
7740,-0.00793457,0.00804443,
7742,-0.00793457,0.00803223,
7744,-0.00671387,0.00804443,
7746,-0.010376,0.00806885,
7748,-0.00793457,0.00807495,
7750,-0.00244141,0.00804443,
7752,-0.010376,0.00801392,
7754,-0.0109863,0.00811157,
7756,-0.00183105,0.00806274,
7758,-0.00427246,0.0079834,
7760,-0.0115967,0.00802002,
7762,-0.00671387,0.00800781,
7764,-0.00793457,0.0079895,
7766,-0.00549316,0.00795288,
7768,-0.00915527,0.00797119,
7770,-0.00488281,0.00794067,
7772,-0.0115967,0.00794678,
7774,-0.00732422,0.00793457,
7776,-0.00854492,0.00791016,
7778,-0.00610352,0.00782471,
7780,-0.00915527,0.00787964,
7782,-0.00854492,0.00784302,
7784,-0.00976563,0.00784912,
7786,-0.00732422,0.00789185,
7788,-0.00915527,0.00787354,
7790,-0.00854492,0.00791626,
7792,-0.00793457,0.00791626,
7794,-0.00793457,0.00795898,
7796,-0.00793457,0.00797119,
7798,-0.010376,0.0079895,
7800,-0.00549316,0.00797729,
7802,-0.00915527,0.00799561,
7804,-0.00732422,0.0079834,
7806,-0.00854492,0.00802002,
7808,-0.00854492,0.00803223,
7810,-0.00671387,0.00802002,
7812,-0.00793457,0.00802612,
7814,-0.00732422,0.00802612,
7816,-0.00793457,0.00802612,
7818,-0.00915527,0.00802612,
7820,-0.00915527,0.00800781,
7822,-0.010376,0.00800781,
7824,-0.0115967,0.00810547,
7826,-0.00793457,0.00809937,
7828,-0.00854492,0.00808716,
7830,-0.0109863,0.00814209,
7832,-0.0128174,0.00817261,
7834,-0.00671387,0.00817261,
7836,-0.00427246,0.00811157,
7838,-0.0128174,0.0081604,
7840,-0.00793457,0.0081604,
7842,-0.0012207,0.00805664,
7844,-0.00488281,0.00803223,
7846,-0.0134277,0.00809937,
7848,-0.00976563,0.00805664,
7850,-0.00305176,0.00805664,
7852,-0.00915527,0.00807495,
7854,-0.00976563,0.00811157,
7856,-0.0189209,0.0081665,
7858,-0.00793457,0.00818481,
7860,-0.00976563,0.00817261,
7862,-0.0109863,0.0081665,
7864,-0.0140381,0.00825195,
7866,-0.00549316,0.00822754,
7868,-0.00732422,0.00827637,
7870,-0.00793457,0.00819702,
7872,-0.0109863,0.00827026,
7874,-0.00793457,0.00828247,
7876,-0.00549316,0.00827026,
7878,-0.00610352,0.00827026,
7880,-0.00732422,0.00822144,
7882,-0.00854492,0.00819702,
7884,-0.00549316,0.00811157,
7886,-0.00671387,0.00812988,
7888,-0.00671387,0.00810547,
7890,-0.00488281,0.00807495,
7892,-0.00671387,0.00800171,
7894,-0.00366211,0.00799561,
7896,-0.00915527,0.00795898,
7898,-0.00427246,0.00793457,
7900,-0.00183105,0.00787354,
7902,-0.00854492,0.00786133,
7904,-0.00793457,0.00784302,
7906,-0.0109863,0.00789185,
7908,-0.00244141,0.00784302,
7910,-0.00732422,0.00784302,
7912,-0.00488281,0.00782471,
7914,-0.00549316,0.00782471,
7916,-0.00732422,0.00784302,
7918,-0.00793457,0.00785522,
7920,-0.00488281,0.00782471,
7922,-0.00488281,0.0078064,
7924,-0.00671387,0.00779419,
7926,-0.00793457,0.00783081,
7928,-0.00427246,0.00779419,
7930,-0.0128174,0.00780029,
7932,-0.00610352,0.00778809,
7934,-0.00915527,0.0078186,
7936,-0.00854492,0.00788574,
7938,-0.00488281,0.0078064,
7940,-0.00854492,0.0078125,
7942,-0.00854492,0.0078186,
7944,-0.00671387,0.0078186,
7946,-0.00366211,0.00775146,
7948,-0.00366211,0.00770874,
7950,-0.00793457,0.00776367,
7952,-0.00366211,0.00769653,
7954,-0.00488281,0.0076355,
7956,-0.00366211,0.00765381,
7958,-0.00488281,0.00765991,
7960,-0.00610352,0.00760498,
7962,-0.00610352,0.00759888,
7964,-0.00305176,0.00755005,
7966,-0.00793457,0.00757446,
7968,-0.00305176,0.00751343,
7970,-0.00610352,0.00752563,
7972,-0.00671387,0.00747681,
7974,-0.00305176,0.00743408,
7976,-0.00976563,0.00744629,
7978,-0.00793457,0.0074646,
7980,-0.00610352,0.00743408,
7982,-0.00549316,0.00740356,
7984,-0.0115967,0.00742187,
7986,-0.00610352,0.00740967,
7988,-0.00976563,0.00741577,
7990,-0.00244141,0.00735474,
7992,-0.00671387,0.00734253,
7994,-0.00915527,0.00735474,
7996,-0.00671387,0.00734253,
7998,-0.00732422,0.00731201,
8000,-0.0109863,0.00736694,
8002,-0.00976563,0.00737305,
8004,-0.00488281,0.00734863,
8006,-0.00915527,0.00735474,
8008,-0.0115967,0.00738525,
8010,-0.00610352,0.00737915,
8012,-0.00549316,0.00735474,
8014,-0.0115967,0.00739746,
8016,-0.00671387,0.00738525,
8018,-0.0012207,0.00730591,
8020,-0.00671387,0.00728149,
8022,-0.0109863,0.0072876,
8024,-0.00671387,0.00723877,
8026,-0.00244141,0.00718384,
8028,-0.00610352,0.00715942,
8030,-0.00366211,0.00708618,
8032,-0.0115967,0.00707397,
8034,-0.00427246,0.00704956,
8036,-0.00793457,0.00708618,
8038,-0.00915527,0.00704956,
8040,-0.00366211,0.00700684,
8042,-0.0115967,0.0071106,
8044,-0.00854492,0.00714722,
8046,-0.00488281,0.00706177,
8048,-0.00610352,0.00702515,
8050,-0.00854492,0.00708008,
8052,-0.00610352,0.00704956,
8054,-0.00671387,0.00701904,
8056,-0.00488281,0.00687866,
8058,-0.010376,0.00690308,
8060,-0.00610352,0.00686646,
8062,-0.012207,0.00687866,
8064,-0.00915527,0.00682983,
8066,-0.00915527,0.00686646,
8068,-0.00732422,0.00686646,
8070,-0.012207,0.00690918,
8072,-0.0109863,0.00690918,
8074,-0.00915527,0.00692139,
8076,-0.00671387,0.00693359,
8078,-0.010376,0.00697632,
8080,-0.010376,0.00700684,
8082,-0.00976563,0.00701904,
8084,-0.00915527,0.00705566,
8086,-0.0115967,0.00710449,
8088,-0.00793457,0.0071167,
8090,-0.00793457,0.00714722,
8092,-0.00732422,0.00715332,
8094,-0.010376,0.00722046,
8096,-0.010376,0.00723267,
8098,-0.00793457,0.00726929,
8100,-0.00610352,0.00731201,
8102,-0.00915527,0.00731812,
8104,-0.00732422,0.00731201,
8106,-0.00732422,0.00727539,
8108,-0.0128174,0.00737915,
8110,-0.00610352,0.00736694,
8112,-0.00671387,0.00738525,
8114,-0.00610352,0.00739136,
8116,-0.00427246,0.00736084,
8118,-0.00854492,0.00736694,
8120,-0.00793457,0.00739746,
8122,-0.00915527,0.00744019,
8124,-0.00793457,0.00745239,
8126,-0.00793457,0.00745239,
8128,-0.00671387,0.00747681,
8130,-0.0128174,0.00747681,
8132,-0.012207,0.00753784,
8134,-0.00549316,0.00750122,
8136,-0.00671387,0.00748291,
8138,-0.0128174,0.00756226,
8140,-0.00366211,0.00751343,
8142,-0.00671387,0.00749512,
8144,-0.00732422,0.00750122,
8146,-0.0134277,0.00759888,
8148,-0.00915527,0.00765381,
8150,-0.00610352,0.0076355,
8152,-0.0115967,0.00771484,
8154,-0.0128174,0.00779419,
8156,-0.00671387,0.00782471,
8158,-0.00549316,0.00783081,
8160,-0.0115967,0.00788574,
8162,-0.00610352,0.00788574,
8164,-0.00915527,0.00794678,
8166,-0.00549316,0.00792236,
8168,-0.00488281,0.00794067,
8170,-0.00549316,0.00793457,
8172,-0.0109863,0.00797729,
8174,-0.00427246,0.0079895,
8176,-0.00488281,0.00794067,
8178,-0.0012207,0.00787354,
8180,-0.0109863,0.00792236,
8182,-0.00671387,0.00793457,
8184,-0.00488281,0.00786743,
8186,-0.00671387,0.00787354,
8188,-0.012207,0.00789795,
8190,-0.00366211,0.00791016,
8192,-0.00915527,0.00793457,
8194,-0.0109863,0.00795288,
8196,-0.00671387,0.00795288,
8198,-0.00671387,0.00794678,
8200,-0.010376,0.00794067,
8202,-0.0128174,0.00797119,
8204,-0.00610352,0.0079834,
8206,-0.00671387,0.00795898,
8208,-0.00854492,0.00792847,
8210,-0.00915527,0.00795898,
8212,-0.00671387,0.00797119,
8214,-0.00793457,0.00793457,
8216,-0.00610352,0.00792847,
8218,-0.00305176,0.00794678,
8220,-0.00915527,0.00797119,
8222,-0.00732422,0.00793457,
8224,-0.00671387,0.00793457,
8226,-0.00854492,0.00799561,
