AnaPao-B-Musc-ABC-L01
Gráfico creado el:2026-06-05 13:47:46.458
Registro en:2026-06-05 13:48:25.715
2 mseg/muestras
2 canales
EMG
mV
EMG Integrado
mV-sec
milliSec,CH1,CH40,
,313592 samples,313592 samples,
0,0.000610352,6.10352E-06,
2,0.00671387,7.32422E-05,
4,-0.0231934,0.000305176,
6,-0.0390625,0.000695801,
8,-0.0482178,0.00117798,
10,-0.0372314,0.00155029,
12,-0.0378418,0.00192871,
14,-0.0299072,0.00222778,
16,-0.020752,0.0024353,
18,-0.00244141,0.00245972,
20,-0.0219727,0.00267944,
22,-0.00732422,0.00275269,
24,0.0109863,0.00286255,
26,-0.00793457,0.00294189,
28,0.0012207,0.0029541,
30,0.00244141,0.00297852,
32,0.00366211,0.00301514,
34,-0.010376,0.0031189,
36,0.0274658,0.00339355,
38,-0.0152588,0.00354614,
40,-0.0158691,0.00370483,
42,-0.00183105,0.00372314,
44,-0.0183105,0.00390625,
46,0.00305176,0.00393677,
48,-0.00366211,0.00397339,
50,0.0115967,0.00408936,
52,0.0201416,0.00429077,
54,0.0268555,0.00455933,
56,0.012207,0.0046814,
58,-0.00793457,0.00476074,
60,0.0408936,0.00516968,
62,-0.00732422,0.00524292,
64,-0.00610352,0.00530396,
66,-0.0109863,0.00541382,
68,-0.0396729,0.00581055,
70,-0.0280762,0.00609131,
72,-0.0146484,0.00623779,
74,-0.0012207,0.00625,
76,-0.00427246,0.00629272,
78,-0.00671387,0.00635986,
80,-0.0238037,0.0065979,
82,0.0183105,0.00678101,
84,0,0.00678101,
86,-0.00549316,0.00683594,
88,0.010376,0.0069397,
90,-0.0012207,0.0069519,
92,-0.0408936,0.00736084,
94,0.00732422,0.00743408,
96,0.0256348,0.00769043,
98,-0.0134277,0.00782471,
100,-0.0146484,0.00797119,
102,-0.0189209,0.0081604,
104,-0.0170898,0.0083313,
106,-0.0146484,0.00847778,
108,-0.0354004,0.00883179,
110,-0.0146484,0.00897827,
112,-0.00793457,0.00905762,
114,-0.00366211,0.00909424,
116,-0.0213623,0.00930786,
118,0.00793457,0.00938721,
120,0.00366211,0.00942383,
122,0.0115967,0.00953979,
124,-0.00610352,0.00960083,
126,0.0231934,0.00983276,
128,0.00793457,0.00991211,
130,-0.0164795,0.0100769,
132,-0.00793457,0.0101563,
134,-0.00976563,0.0102539,
136,0.00366211,0.0102905,
138,-0.00305176,0.010321,
140,-0.0109863,0.0104309,
142,-0.000610352,0.010437,
144,-0.000610352,0.0104431,
146,-0.00915527,0.0105347,
148,0.0390625,0.0109253,
150,0.022583,0.0111511,
152,0.00915527,0.0112427,
154,-0.020752,0.0114502,
156,0.0177002,0.0116272,
158,-0.00976563,0.0117249,
160,-0.0280762,0.0120056,
162,-0.0170898,0.0121765,
164,-0.0280762,0.0124573,
166,-0.0189209,0.0126465,
168,-0.0213623,0.0128601,
170,-0.00549316,0.012915,
172,-0.020752,0.0131226,
174,0.00549316,0.0131775,
176,-0.00305176,0.013208,
178,-0.00244141,0.0132324,
180,-0.0115967,0.0133484,
182,0.00305176,0.0133789,
184,-0.0189209,0.0135681,
186,-0.00610352,0.0136292,
188,-0.00976563,0.0137268,
190,-0.0146484,0.0138733,
192,0.00244141,0.0138977,
194,-0.00854492,0.0139832,
196,-0.0140381,0.0141235,
198,0.0158691,0.0142822,
200,-0.0164795,0.0144409,
202,-0.00732422,0.014447,
204,-0.0146484,0.0143616,
206,0.0268555,0.0142395,
208,-0.0238037,0.0139954,
210,0.00244141,0.0136475,
212,-0.0152588,0.0134216,
214,0.0231934,0.0133545,
216,0.00671387,0.0132141,
218,0.00915527,0.0132813,
220,-0.0146484,0.013208,
222,-0.0250244,0.013385,
224,0.00427246,0.0133179,
226,0.00488281,0.0132874,
228,-0.0335693,0.0136108,
230,-0.022583,0.0138123,
232,-0.0268555,0.0140442,
234,-0.0183105,0.0141235,
236,-0.0134277,0.0139832,
238,0.00427246,0.0138733,
240,-0.00549316,0.0137695,
242,0.00244141,0.0137756,
244,-0.0012207,0.0136047,
246,0.012207,0.0136963,
248,-0.0146484,0.0138062,
250,0.00854492,0.0137756,
252,-0.0134277,0.0137085,
254,0.00610352,0.013501,
256,-0.0128174,0.0135071,
258,-0.00610352,0.0134888,
260,-0.0140381,0.0132202,
262,-0.00854492,0.0132324,
264,-0.0012207,0.0131836,
266,-0.00671387,0.0131409,
268,-0.000610352,0.0127502,
270,-0.00671387,0.0125366,
272,-0.0109863,0.0125,
274,0.00549316,0.0125427,
276,0.00244141,0.0125244,
278,0.00549316,0.0125122,
280,-0.0366211,0.0126404,
282,0.0183105,0.0126404,
284,0.000610352,0.0126465,
286,-0.020752,0.0127991,
288,-0.00366211,0.0127319,
290,-0.00854492,0.0128052,
292,-0.00610352,0.0124573,
294,-0.000610352,0.0123901,
296,-0.0262451,0.0123962,
298,0.00488281,0.0123108,
300,-0.00610352,0.0122253,
302,0.0128174,0.0121643,
304,-0.0146484,0.0121399,
306,-0.0195313,0.0121887,
308,0.00244141,0.0118591,
310,0.00183105,0.011731,
312,-0.0140381,0.011792,
314,-0.0177002,0.0119324,
316,-0.00976563,0.0118164,
318,-0.0115967,0.011853,
320,-0.00244141,0.0118408,
322,-0.0109863,0.0118347,
324,0.00244141,0.0117981,
326,-0.00427246,0.0116089,
328,0.00610352,0.0115906,
330,-0.00671387,0.0114929,
332,0.00549316,0.0114685,
334,-0.00915527,0.0114624,
336,-0.00610352,0.0114868,
338,-0.00488281,0.0115051,
340,-0.012207,0.0115173,
342,0.00610352,0.0115723,
344,-0.022583,0.011792,
346,-0.000610352,0.0117065,
348,0.0146484,0.0114624,
350,-0.0140381,0.011377,
352,0.0201416,0.0114868,
354,-0.00793457,0.0113586,
356,-0.0177002,0.0113586,
358,-0.00549316,0.0113159,
360,-0.00671387,0.0111023,
362,-0.00427246,0.0109741,
364,-0.0189209,0.0108826,
366,-0.012207,0.0108154,
368,0.010376,0.0107056,
370,-0.0134277,0.0107849,
372,0.0012207,0.0105896,
374,0.00915527,0.0106262,
376,-0.00549316,0.0106506,
378,0.00854492,0.0107117,
380,-0.00671387,0.0106628,
382,0.0134277,0.0107666,
384,0.00244141,0.0106018,
386,-0.0140381,0.0106812,
388,-0.010376,0.0106873,
390,-0.00183105,0.0105591,
392,-0.00183105,0.010553,
394,-0.0152588,0.0106201,
396,0.00366211,0.0105164,
398,-0.0292969,0.0106506,
400,-0.0012207,0.010498,
402,-0.00183105,0.0104431,
404,-0.0195313,0.0104919,
406,-0.0012207,0.0102356,
408,0.00183105,0.0100159,
410,-0.0201416,0.0101929,
412,-0.00976563,0.0101379,
414,0,0.00990601,
416,-0.00305176,0.00986938,
418,-0.012207,0.0098999,
420,-0.00244141,0.00977783,
422,0,0.00952759,
424,-0.020752,0.00969238,
426,0.020752,0.00985107,
428,-0.00671387,0.00958252,
430,-0.00366211,0.00939331,
432,-0.0012207,0.00913696,
434,0.00610352,0.00901489,
436,-0.00305176,0.00891113,
438,-0.0201416,0.00906982,
440,0,0.00901489,
442,-0.0177002,0.00916748,
444,0.00305176,0.00918579,
446,-0.0189209,0.00925293,
448,-0.0305176,0.00941162,
450,-0.00671387,0.00939331,
452,-0.0109863,0.0093689,
454,-0.0140381,0.00944824,
456,-0.00549316,0.009375,
458,-0.000610352,0.00932007,
460,-0.0219727,0.00939941,
462,-0.0238037,0.009552,
464,-0.000610352,0.0095459,
466,-0.00488281,0.00952759,
468,-0.00915527,0.00961304,
470,-0.0140381,0.00968628,
472,-0.00854492,0.00966187,
474,-0.0012207,0.00961914,
476,-0.00976563,0.00969238,
478,0.00732422,0.00971069,
480,0.00854492,0.00942993,
482,-0.00671387,0.00931396,
484,-0.0158691,0.00946655,
486,0.0408936,0.00966797,
488,-0.0360107,0.00999146,
490,0.022583,0.0101318,
492,-0.00244141,0.0100952,
494,-0.012207,0.0102112,
496,-0.0219727,0.0101685,
498,-0.0109863,0.0102295,
500,-0.0299072,0.0104675,
502,0.0140381,0.0104797,
504,-0.0244141,0.0105774,
506,-0.0280762,0.0106628,
508,-0.0189209,0.0108276,
510,0,0.0108093,
512,-0.00793457,0.0107483,
514,-0.00732422,0.0106445,
516,0.0109863,0.0106567,
518,0.0195313,0.0107361,
520,-0.0311279,0.0110229,
522,-0.0152588,0.0110657,
524,0.00305176,0.0110718,
526,0.00732422,0.0111023,
528,-0.00854492,0.0111267,
530,-0.0341797,0.0114014,
532,-0.00549316,0.0114014,
534,-0.0134277,0.0114441,
536,-0.012207,0.0115051,
538,0.00610352,0.0115173,
540,-0.0128174,0.0115234,
542,-0.0146484,0.0116089,
544,-0.00610352,0.0114441,
546,-0.00244141,0.0114624,
548,-0.00671387,0.0113831,
550,0.0177002,0.0114197,
552,-0.0250244,0.0114685,
554,0.00305176,0.0114197,
556,-0.0012207,0.0112549,
558,0.0146484,0.0113464,
560,-0.0146484,0.0114258,
562,-0.000610352,0.0113892,
564,-0.0109863,0.0113098,
566,-0.0012207,0.0112,
568,-0.0152588,0.0112488,
570,0.00610352,0.0111755,
572,-0.0146484,0.0113098,
574,-0.00671387,0.0112854,
576,-0.0012207,0.0112427,
578,-0.00183105,0.0111755,
580,-0.00732422,0.0111816,
582,0.00488281,0.0110962,
584,0.00671387,0.0111389,
586,0.00183105,0.0110168,
588,-0.0189209,0.0111023,
590,-0.0140381,0.0112244,
592,0.0262451,0.0114685,
594,-0.00915527,0.0114075,
596,-0.00244141,0.0113953,
598,0.00244141,0.0111267,
600,-0.0012207,0.0111267,
602,-0.00976563,0.0112061,
604,0.0201416,0.0112122,
606,0.00854492,0.0112854,
608,-0.022583,0.0114929,
610,-0.00793457,0.0113708,
612,-0.00854492,0.0113586,
614,-0.00671387,0.0114258,
616,-0.00488281,0.0114441,
618,-0.0286865,0.0116089,
620,-0.020752,0.011792,
622,0.0128174,0.0119202,
624,-0.0201416,0.0119141,
626,-0.00671387,0.0117737,
628,-0.0170898,0.0118774,
630,0.0274658,0.0121155,
632,-0.00549316,0.0121582,
634,-0.0274658,0.0123718,
636,0.00793457,0.0124207,
638,-0.00183105,0.0122375,
640,-0.00366211,0.0122742,
642,-0.000610352,0.0121033,
644,-0.0134277,0.012207,
646,-0.0012207,0.01203,
648,0.0109863,0.0118347,
650,0.00915527,0.0118591,
652,0.0152588,0.0119019,
654,-0.00671387,0.0118286,
656,0.00244141,0.0117981,
658,0.0238037,0.01203,
660,-0.0109863,0.0119202,
662,-0.00488281,0.011731,
664,0.00183105,0.0117432,
666,-0.00244141,0.0117188,
668,-0.0128174,0.0117554,
670,0.0152588,0.0117676,
672,0.00427246,0.0117249,
674,-0.0213623,0.0119263,
676,-0.0152588,0.0119812,
678,0.0140381,0.0120483,
680,-0.00732422,0.0120361,
682,-0.0012207,0.0119812,
684,-0.0372314,0.0121948,
686,-0.0146484,0.0119324,
688,0.0183105,0.0117554,
690,-0.0201416,0.011731,
692,-0.00366211,0.0117432,
694,0.000610352,0.0116272,
696,-0.00183105,0.0114258,
698,-0.0146484,0.0114624,
700,0.00305176,0.0111938,
702,-0.00671387,0.0111206,
704,-0.0012207,0.0108887,
706,-0.00793457,0.0106873,
708,0.0183105,0.0106812,
710,-0.0134277,0.0108154,
712,-0.0109863,0.0108459,
714,0.00854492,0.0108582,
716,-0.0115967,0.0108643,
718,-0.0140381,0.0108093,
720,-0.00854492,0.0105835,
722,-0.00244141,0.0104553,
724,-0.00915527,0.0105164,
726,-0.00732422,0.0105164,
728,-0.00854492,0.0105164,
730,-0.0177002,0.0103516,
732,-0.00793457,0.010376,
734,-0.0134277,0.010376,
736,0.00244141,0.0102783,
738,0.00610352,0.0102783,
740,-0.0421143,0.0105713,
742,-0.020752,0.0106323,
744,0.00793457,0.0106506,
746,-0.022583,0.0108521,
748,-0.00610352,0.0108459,
750,-0.0311279,0.0109802,
752,-0.0183105,0.0109131,
754,-0.0195313,0.0110779,
756,-0.0335693,0.0114014,
758,0.0262451,0.0115173,
760,-0.0213623,0.0115845,
762,-0.0201416,0.0117798,
764,-0.0262451,0.0119324,
766,0.00244141,0.0119446,
768,-0.0146484,0.0119385,
770,-0.0244141,0.0121216,
772,-0.00915527,0.0120667,
774,-0.0195313,0.0121948,
776,-0.0238037,0.0124207,
778,-0.0115967,0.0125183,
780,-0.00915527,0.0125366,
782,-0.0115967,0.0126038,
784,0.00488281,0.0125854,
786,-0.00915527,0.0126587,
788,-0.0195313,0.0126648,
790,0.000610352,0.0125305,
792,0.010376,0.0123718,
794,-0.0219727,0.0125,
796,-0.0012207,0.0124878,
798,0.0213623,0.012677,
800,0.010376,0.0127686,
802,-0.00976563,0.0127686,
804,-0.00915527,0.0126587,
806,0.00976563,0.0126709,
808,-0.0012207,0.0124573,
810,0.00732422,0.0124512,
812,-0.0140381,0.0125061,
814,-0.0256348,0.0126953,
816,-0.00671387,0.0127136,
818,0.010376,0.0125305,
820,-0.0146484,0.0124695,
822,-0.0140381,0.0124817,
824,-0.00427246,0.012323,
826,0.00244141,0.0122803,
828,-0.0012207,0.0121216,
830,-0.00244141,0.0118713,
832,-0.00427246,0.0118591,
834,0.00549316,0.0116394,
836,-0.00183105,0.0115784,
838,-0.00244141,0.0115845,
840,-0.00915527,0.0116394,
842,-0.00488281,0.0116821,
844,0.0012207,0.0115601,
846,-0.0195313,0.0117432,
848,-0.00793457,0.0117126,
850,0.00854492,0.0117065,
852,-0.0201416,0.0117554,
854,0.0146484,0.0118347,
856,-0.0146484,0.0119568,
858,-0.00427246,0.0117615,
860,0.00183105,0.0116699,
862,-0.000610352,0.0116272,
864,0.00305176,0.0116394,
866,0.00915527,0.0117065,
868,-0.0219727,0.0117981,
870,0.00305176,0.011676,
872,0.00671387,0.0117004,
874,-0.0109863,0.0115967,
876,-0.012207,0.0115662,
878,-0.00976563,0.0115234,
880,0.00610352,0.0115112,
882,-0.0128174,0.0116272,
884,-0.00854492,0.0113403,
886,-0.012207,0.0113159,
888,0.00793457,0.0112122,
890,-0.00671387,0.0110779,
892,-0.00549316,0.0110962,
894,0.0128174,0.0112183,
896,-0.00854492,0.0112854,
898,-0.00671387,0.0112061,
900,-0.00610352,0.0112366,
902,-0.00793457,0.0112488,
904,0.00183105,0.0112549,
906,-0.010376,0.0112793,
908,-0.00976563,0.0111938,
910,-0.010376,0.0111633,
912,-0.00732422,0.0111267,
914,0.000610352,0.0110474,
916,-0.0152588,0.011084,
918,0.0274658,0.0112183,
920,-0.03479,0.0114807,
922,0.00732422,0.0115295,
924,-0.0195313,0.0116333,
926,0.0146484,0.0117065,
928,-0.00244141,0.0116455,
930,-0.020752,0.011676,
932,-0.022583,0.0118225,
934,0.00366211,0.0117249,
936,-0.0146484,0.0118469,
938,-0.0213623,0.0119995,
940,-0.0115967,0.0116943,
942,-0.00793457,0.0115662,
944,-0.0109863,0.0115967,
946,-0.0201416,0.0115723,
948,0.0128174,0.0116394,
950,-0.0128174,0.0114563,
952,-0.00671387,0.0113403,
954,-0.00183105,0.0111633,
956,0.00549316,0.0108826,
958,-0.00671387,0.0106873,
960,-0.00488281,0.0105225,
962,-0.00488281,0.0103699,
964,-0.00183105,0.0101257,
966,0.00671387,0.0101685,
968,-0.0115967,0.0101379,
970,-0.00183105,0.00991211,
972,-0.00732422,0.0098938,
974,0.00915527,0.00979004,
976,-0.00244141,0.00957642,
978,0,0.00946045,
980,-0.0158691,0.00952759,
982,0.000610352,0.00941772,
984,0.0146484,0.00951538,
986,-0.010376,0.00952759,
988,0.00671387,0.00939941,
990,0.0012207,0.00940552,
992,-0.0109863,0.00941162,
994,-0.00549316,0.00924683,
996,-0.00183105,0.00925293,
998,-0.00244141,0.00906372,
1000,-0.00671387,0.0090271,
1002,-0.0012207,0.00894165,
1004,-0.00488281,0.00889893,
1006,-0.012207,0.00892334,
1008,0.0012207,0.00892334,
1010,0.00366211,0.00888672,
1012,-0.00244141,0.00877075,
1014,-0.0152588,0.00866699,
1016,-0.000610352,0.00860596,
1018,-0.00671387,0.00856934,
1020,-0.000610352,0.00842896,
1022,-0.0109863,0.00839844,
1024,-0.0158691,0.0085144,
1026,0.0140381,0.00863037,
1028,0.00366211,0.00865479,
1030,-0.010376,0.00873413,
1032,-0.00610352,0.00875244,
1034,-0.00305176,0.00872803,
1036,-0.000610352,0.00871582,
1038,-0.00427246,0.00873413,
1040,-0.00793457,0.00872192,
1042,-0.0146484,0.00881958,
1044,-0.00427246,0.0088501,
1046,0.0012207,0.00866699,
1048,0.00244141,0.00861206,
1050,-0.00732422,0.00859985,
1052,-0.000610352,0.00840454,
1054,-0.00183105,0.00827637,
1056,0.00610352,0.00819092,
1058,-0.00488281,0.00819702,
1060,0,0.00817871,
1062,0.000610352,0.00817871,
1064,0.0012207,0.0081604,
1066,0.00854492,0.0081543,
1068,-0.00549316,0.0079895,
1070,0.00671387,0.00802612,
1072,-0.00671387,0.00802612,
1074,0.0012207,0.00792847,
1076,-0.00549316,0.00786133,
1078,-0.0219727,0.0079834,
1080,-0.00854492,0.00800781,
1082,-0.0109863,0.0079895,
1084,-0.00488281,0.00795288,
1086,-0.0195313,0.00802612,
1088,-0.00366211,0.0079834,
1090,-0.00610352,0.00797729,
1092,-0.010376,0.00802612,
1094,-0.00427246,0.00794067,
1096,-0.00793457,0.00793457,
1098,-0.00610352,0.00792847,
1100,-0.0134277,0.00800171,
1102,-0.00549316,0.00797729,
1104,-0.00976563,0.00805664,
1106,-0.00244141,0.00797729,
1108,-0.012207,0.00800171,
1110,0.00244141,0.00792236,
1112,0.00366211,0.00788574,
1114,-0.00183105,0.00789795,
1116,-0.00244141,0.00776978,
1118,-0.00183105,0.00751343,
1120,-0.0012207,0.00717773,
1122,0.0012207,0.0071167,
1124,-0.00305176,0.0069519,
1126,-0.010376,0.00690918,
1128,-0.00732422,0.00695801,
1130,-0.00305176,0.00678101,
1132,-0.0134277,0.00668945,
1134,-0.00915527,0.00674438,
1136,0.010376,0.00670166,
1138,-0.00427246,0.00653076,
1140,-0.00793457,0.00649414,
1142,0.00427246,0.00645752,
1144,-0.0115967,0.00646362,
1146,-0.00183105,0.00628052,
1148,-0.00305176,0.00618286,
1150,-0.00549316,0.00610962,
1152,-0.00976563,0.00614014,
1154,-0.00427246,0.00616455,
1156,-0.012207,0.00623169,
1158,-0.010376,0.00626831,
1160,-0.00305176,0.00625,
1162,0.00244141,0.00622559,
1164,-0.00549316,0.00626221,
1166,-0.0115967,0.00631104,
1168,0.00793457,0.00627441,
1170,0.000610352,0.00626221,
1172,-0.0146484,0.00633545,
1174,-0.00366211,0.00628052,
1176,0.00732422,0.00632935,
1178,0.00305176,0.00635986,
1180,-0.0195313,0.00639648,
1182,0.00488281,0.00643921,
1184,0.000610352,0.00629883,
1186,0.000610352,0.00620117,
1188,-0.00244141,0.00615845,
1190,-0.00854492,0.00623169,
1192,0.0012207,0.00613403,
1194,0.00366211,0.00611572,
1196,-0.0012207,0.00610962,
1198,-0.022583,0.00631104,
1200,0.0231934,0.00647583,
1202,-0.0170898,0.00663452,
1204,-0.0134277,0.00671997,
1206,-0.000610352,0.006604,
1208,0.0012207,0.006604,
1210,-0.00610352,0.00662842,
1212,-0.00305176,0.00663452,
1214,-0.0134277,0.00661621,
1216,0.00549316,0.00666504,
1218,-0.00183105,0.00661621,
1220,-0.000610352,0.00661621,
1222,0.00854492,0.0065918,
1224,-0.00976563,0.00653076,
1226,-0.0115967,0.00650635,
1228,0.0274658,0.00674438,
1230,0.00244141,0.00666504,
1232,-0.0128174,0.00673218,
1234,0.00427246,0.00674438,
1236,0.0195313,0.00693359,
1238,-0.00671387,0.00695801,
1240,0.00610352,0.0069397,
1242,-0.00427246,0.00683594,
1244,0.00671387,0.00686035,
1246,0.00244141,0.00687256,
1248,0,0.00684814,
1250,-0.0109863,0.00688477,
1252,-0.0012207,0.00689087,
1254,0.000610352,0.00687866,
1256,-0.00427246,0.00686035,
1258,0.00305176,0.00684204,
1260,-0.012207,0.00696411,
1262,0.000610352,0.00696411,
1264,-0.00366211,0.00698853,
1266,-0.00976563,0.00700073,
1268,0,0.0069458,
1270,-0.0115967,0.00699463,
1272,-0.00183105,0.0069458,
1274,-0.00915527,0.00702515,
1276,-0.00244141,0.00699463,
1278,-0.00549316,0.00682983,
1280,-0.00732422,0.00681763,
1282,-0.010376,0.00681152,
1284,0.00244141,0.00678711,
1286,-0.00244141,0.00661621,
1288,0.00183105,0.0065979,
1290,-0.0109863,0.00664673,
1292,0.0109863,0.00665283,
1294,-0.0109863,0.00671997,
1296,-0.0140381,0.00678101,
1298,0.0146484,0.00686646,
1300,0.00610352,0.00679321,
1302,-0.00915527,0.00682983,
1304,0.00732422,0.00680542,
1306,-0.00549316,0.00683594,
1308,-0.00976563,0.00681152,
1310,-0.000610352,0.00679321,
1312,0.00854492,0.00684204,
1314,-0.0152588,0.00697632,
1316,0.00549316,0.00700684,
1318,-0.0134277,0.0071228,
1320,0.00427246,0.00715332,
1322,-0.0109863,0.00725098,
1324,-0.00488281,0.00726929,
1326,-0.00854492,0.00725098,
1328,-0.00549316,0.00723267,
1330,-0.00549316,0.00725708,
1332,-0.0109863,0.00723267,
1334,-0.00366211,0.00717773,
1336,-0.00427246,0.0071167,
1338,-0.0134277,0.00720825,
1340,-0.00305176,0.00715942,
1342,-0.00183105,0.00713501,
1344,-0.0109863,0.00712891,
1346,-0.0012207,0.0071228,
1348,-0.00183105,0.0071106,
1350,-0.00854492,0.00714111,
1352,-0.0164795,0.00720825,
1354,0.0012207,0.00717773,
1356,0.010376,0.00715942,
1358,-0.00854492,0.00714111,
1360,0.00366211,0.00714722,
1362,0.012207,0.00724487,
1364,-0.0177002,0.00736694,
1366,0.00427246,0.0072937,
1368,-0.000610352,0.00722046,
1370,-0.012207,0.00733643,
1372,0.00549316,0.00724487,
1374,-0.00183105,0.00722656,
1376,-0.0115967,0.00726929,
1378,-0.00549316,0.0072937,
1380,0.0012207,0.0071106,
1382,-0.000610352,0.00706787,
1384,-0.0134277,0.00719604,
1386,-0.000610352,0.00719604,
1388,-0.00305176,0.00720215,
1390,-0.0158691,0.00727539,
1392,-0.0164795,0.00742798,
1394,0.000610352,0.00739746,
1396,-0.010376,0.00748901,
1398,-0.010376,0.00736694,
1400,-0.010376,0.00723877,
1402,-0.00793457,0.00714722,
1404,-0.00976563,0.0071106,
1406,-0.000610352,0.0071106,
1408,-0.00732422,0.00717163,
1410,-0.00976563,0.00720825,
1412,0.0012207,0.00718994,
1414,-0.0128174,0.00718384,
1416,-0.00854492,0.00721436,
1418,0.00854492,0.00728149,
1420,-0.00854492,0.00736084,
1422,-0.00732422,0.00734863,
1424,-0.00549316,0.00730591,
1426,-0.00976563,0.0072876,
1428,-0.00671387,0.00708008,
1430,-0.010376,0.00715942,
1432,-0.00732422,0.00710449,
1434,-0.000610352,0.00706787,
1436,-0.00915527,0.00696411,
1438,-0.00671387,0.00696411,
1440,-0.00915527,0.00699463,
1442,-0.0012207,0.00696411,
1444,-0.012207,0.00701904,
1446,-0.00549316,0.00704956,
1448,-0.00549316,0.00710449,
1450,0.00244141,0.00701904,
1452,-0.0109863,0.0071167,
1454,-0.00549316,0.00716553,
1456,-0.0115967,0.00723877,
1458,0.0115967,0.00732422,
1460,-0.012207,0.00732422,
1462,-0.0109863,0.00742798,
1464,-0.0134277,0.00752563,
1466,0.00488281,0.00747681,
1468,-0.00549316,0.00753174,
1470,-0.00976563,0.00751343,
1472,-0.00549316,0.00755005,
1474,-0.00976563,0.00755615,
1476,-0.000610352,0.00753784,
1478,-0.022583,0.00770874,
1480,0.0128174,0.00776367,
1482,-0.00366211,0.00769653,
1484,-0.0213623,0.00788574,
1486,-0.00427246,0.00790405,
1488,0,0.00788574,
1490,-0.00549316,0.00783081,
1492,-0.00671387,0.00778809,
1494,-0.00305176,0.00770874,
1496,-0.00732422,0.0076416,
1498,-0.00671387,0.00756226,
1500,-0.012207,0.00762329,
1502,-0.0146484,0.00767822,
1504,-0.00854492,0.00769043,
1506,-0.00732422,0.00770874,
1508,-0.00976563,0.00770874,
1510,-0.010376,0.0078064,
1512,0.000610352,0.00772705,
1514,-0.00976563,0.00767212,
1516,-0.0158691,0.00777588,
1518,-0.0012207,0.00765381,
1520,0.000610352,0.00761719,
1522,-0.00305176,0.00753784,
1524,-0.0231934,0.00772095,
1526,0.00549316,0.00769043,
1528,-0.00427246,0.00767822,
1530,-0.012207,0.00774536,
1532,-0.00915527,0.00772705,
1534,-0.00427246,0.00773315,
1536,-0.00793457,0.00776978,
1538,-0.00610352,0.00769653,
1540,-0.010376,0.00776978,
1542,-0.00488281,0.00780029,
1544,-0.00366211,0.00772705,
1546,-0.00488281,0.00776367,
1548,-0.0177002,0.00792236,
1550,0.00549316,0.00789185,
1552,-0.00366211,0.00776367,
1554,-0.0189209,0.00794067,
1556,0.00610352,0.00789795,
1558,-0.00427246,0.00785522,
1560,-0.00427246,0.00786133,
1562,0.00732422,0.0078125,
1564,-0.0158691,0.00779419,
1566,0.00427246,0.00779419,
1568,0,0.00778809,
1570,-0.00793457,0.00774536,
1572,-0.00671387,0.00775757,
1574,-0.0177002,0.00791626,
1576,-0.0115967,0.00791626,
1578,-0.00671387,0.00792847,
1580,-0.00854492,0.00800171,
1582,-0.0128174,0.00812378,
1584,-0.00244141,0.00801392,
1586,-0.00793457,0.00808716,
1588,-0.00305176,0.00808716,
1590,-0.000610352,0.00793457,
1592,-0.00183105,0.00778809,
1594,-0.012207,0.00790405,
1596,0.00488281,0.00784912,
1598,-0.0109863,0.00785522,
1600,-0.00183105,0.00776978,
1602,-0.00549316,0.00774536,
1604,-0.00427246,0.00769043,
1606,-0.00427246,0.00772705,
1608,-0.00427246,0.00769653,
1610,0,0.00759888,
1612,-0.00732422,0.00765991,
1614,-0.00366211,0.00756836,
1616,-0.00671387,0.00755005,
1618,0.00183105,0.00748291,
1620,-0.0201416,0.00759888,
1622,0.0128174,0.00765381,
1624,-0.0152588,0.00775146,
1626,-0.00732422,0.00772705,
1628,-0.00915527,0.00775146,
1630,0.00610352,0.00770874,
1632,-0.00183105,0.00765381,
1634,-0.0189209,0.00783691,
1636,-0.00244141,0.00776978,
1638,-0.00305176,0.00773315,
1640,0.000610352,0.00764771,
1642,-0.0213623,0.00784912,
1644,-0.00671387,0.00779419,
1646,0,0.00773926,
1648,-0.0170898,0.00785522,
1650,-0.010376,0.00793457,
1652,0.00366211,0.00786133,
1654,-0.00854492,0.00789185,
1656,0,0.00777588,
1658,-0.0109863,0.00776978,
1660,-0.0012207,0.00765991,
1662,-0.00915527,0.0076416,
1664,-0.00488281,0.00755615,
1666,-0.000610352,0.00751343,
1668,-0.0109863,0.00756836,
1670,-0.00793457,0.00755005,
1672,0.00244141,0.00751953,
1674,-0.0109863,0.00753174,
1676,-0.00915527,0.00761719,
1678,0.00732422,0.0074646,
1680,-0.00549316,0.00739136,
1682,-0.00976563,0.00745239,
1684,0.0213623,0.00745239,
1686,-0.00854492,0.00749512,
1688,-0.00854492,0.00758057,
1690,-0.000610352,0.00753174,
1692,-0.0115967,0.00758057,
1694,0.00488281,0.00759888,
1696,-0.00915527,0.00761719,
1698,-0.0134277,0.00768433,
1700,-0.0109863,0.00767212,
1702,-0.0115967,0.0076416,
1704,-0.0152588,0.00770874,
1706,-0.00366211,0.00767212,
1708,-0.010376,0.00767822,
1710,0.000610352,0.00758057,
1712,-0.0213623,0.00778809,
1714,-0.00854492,0.00777588,
1716,0.00366211,0.00765381,
1718,-0.000610352,0.00764771,
1720,-0.0183105,0.00782471,
1722,-0.00915527,0.00788574,
1724,-0.0109863,0.00776367,
1726,0.00549316,0.00776367,
1728,-0.00305176,0.00775146,
1730,-0.020752,0.00783691,
1732,-0.0164795,0.00791016,
1734,-0.000610352,0.00787354,
1736,0.00244141,0.0078186,
1738,-0.0134277,0.00789185,
1740,-0.0109863,0.00789795,
1742,-0.00671387,0.00791626,
1744,-0.00427246,0.00792236,
1746,-0.00610352,0.00793457,
1748,-0.00793457,0.00783691,
1750,-0.00549316,0.00783691,
1752,-0.00244141,0.00782471,
1754,-0.00183105,0.00765381,
1756,-0.0115967,0.00770874,
1758,0.00244141,0.00769043,
1760,-0.00915527,0.00773926,
1762,-0.00610352,0.00772705,
1764,-0.00488281,0.00761719,
1766,-0.00427246,0.00761719,
1768,-0.00793457,0.00769653,
1770,-0.00427246,0.00765991,
1772,0,0.00759277,
1774,-0.0219727,0.0076355,
1776,-0.00793457,0.00759888,
1778,-0.00488281,0.00758057,
1780,-0.00488281,0.00754395,
1782,-0.010376,0.00751953,
1784,-0.00976563,0.00759277,
1786,-0.010376,0.00761719,
1788,-0.00427246,0.00762939,
1790,0,0.00762329,
1792,-0.00732422,0.00767822,
1794,0.00183105,0.00757446,
1796,-0.00732422,0.00759888,
1798,-0.00488281,0.00753784,
1800,-0.00366211,0.00755615,
1802,-0.00366211,0.00753784,
1804,-0.00366211,0.00753174,
1806,-0.00732422,0.00756226,
1808,-0.00854492,0.00760498,
1810,-0.00183105,0.00762329,
1812,-0.0140381,0.00769043,
1814,-0.010376,0.00775757,
1816,-0.00427246,0.00773315,
1818,-0.00305176,0.00774536,
1820,-0.00244141,0.00756836,
1822,-0.0152588,0.00759277,
1824,-0.00244141,0.0074646,
1826,0.00976563,0.00748901,
1828,-0.0231934,0.00762939,
1830,-0.0115967,0.00768433,
1832,-0.00183105,0.00768433,
1834,-0.00976563,0.00759277,
1836,0.0109863,0.00767822,
1838,-0.0189209,0.00783691,
1840,-0.0109863,0.00794067,
1842,-0.00549316,0.00778198,
1844,0.00305176,0.00774536,
1846,-0.00488281,0.00779419,
1848,-0.0170898,0.00779419,
1850,-0.00732422,0.00776367,
1852,-0.00427246,0.00776978,
1854,-0.0134277,0.0078186,
1856,0.00244141,0.00784302,
1858,-0.0134277,0.00786743,
1860,-0.010376,0.00795898,
1862,-0.00183105,0.00788574,
1864,-0.00671387,0.00790405,
1866,0.0012207,0.00791016,
1868,-0.00488281,0.00784912,
1870,-0.00793457,0.00784912,
1872,-0.00183105,0.00784302,
1874,-0.00366211,0.00776978,
1876,-0.0012207,0.00769043,
1878,0.00549316,0.00767212,
1880,-0.00244141,0.0076416,
1882,-0.0140381,0.00768433,
1884,-0.00366211,0.00750732,
1886,-0.00488281,0.0074707,
1888,0.00305176,0.00741577,
1890,-0.00732422,0.00748291,
1892,-0.000610352,0.00737305,
1894,0.0012207,0.00733643,
1896,-0.00183105,0.00726318,
1898,0.00244141,0.00715332,
1900,-0.00244141,0.00706787,
1902,0.000610352,0.00695801,
1904,-0.00854492,0.00689087,
1906,-0.00427246,0.00689697,
1908,-0.0134277,0.00692749,
1910,0.00305176,0.0069519,
1912,-0.00244141,0.0067627,
1914,-0.0115967,0.00679321,
1916,-0.00183105,0.0067749,
1918,0.00610352,0.00682983,
1920,-0.00244141,0.00667114,
1922,-0.00488281,0.00662842,
1924,-0.0109863,0.00662842,
1926,-0.00366211,0.00661011,
1928,-0.0012207,0.0065918,
1930,0,0.00638428,
1932,-0.00915527,0.00631104,
1934,-0.00610352,0.00636597,
1936,0.0109863,0.00645142,
1938,-0.0170898,0.00648804,
1940,-0.010376,0.00648193,
1942,0.00610352,0.00647583,
1944,-0.00976563,0.00653076,
1946,-0.00976563,0.00656738,
1948,0.00183105,0.00650635,
1950,-0.0189209,0.00664063,
1952,-0.000610352,0.00662231,
1954,-0.00427246,0.00664673,
1956,0.0012207,0.00654297,
1958,-0.00793457,0.0065979,
1960,-0.00183105,0.00652466,
1962,0.00549316,0.00651855,
1964,-0.0134277,0.006604,
1966,-0.00793457,0.00664063,
1968,0.00183105,0.00657959,
1970,-0.00854492,0.00662231,
1972,-0.0128174,0.00675049,
1974,-0.010376,0.00663452,
1976,-0.00854492,0.00664063,
1978,-0.00732422,0.00666504,
1980,-0.0115967,0.00673218,
1982,-0.00183105,0.00664673,
1984,-0.00793457,0.00662842,
1986,-0.022583,0.00675049,
1988,0.0109863,0.00681763,
1990,-0.00671387,0.00688477,
1992,-0.012207,0.00693359,
1994,-0.00305176,0.0069458,
1996,-0.0109863,0.00698242,
1998,-0.00915527,0.00702515,
2000,-0.00183105,0.00700684,
2002,-0.00976563,0.00706787,
2004,-0.00671387,0.00709839,
2006,-0.00671387,0.00709229,
2008,-0.0109863,0.0071167,
2010,-0.00183105,0.0071167,
2012,0.00488281,0.00702515,
2014,-0.00976563,0.00701904,
2016,-0.0012207,0.00698853,
2018,-0.00976563,0.00705566,
2020,0.0115967,0.00714722,
2022,-0.0128174,0.0071228,
2024,-0.0219727,0.00731812,
2026,0.00305176,0.00725098,
2028,-0.0012207,0.00703125,
2030,-0.0183105,0.00709839,
2032,-0.00915527,0.00717163,
2034,-0.00610352,0.00713501,
2036,-0.0134277,0.00715942,
2038,-0.00366211,0.00700684,
2040,-0.00427246,0.0069397,
2042,0.00244141,0.00690918,
2044,-0.0170898,0.00704956,
2046,-0.00793457,0.00708008,
2048,-0.0012207,0.00692139,
2050,-0.0012207,0.00686035,
2052,-0.0158691,0.00697632,
2054,-0.0109863,0.0069519,
2056,-0.00976563,0.00702515,
2058,-0.0012207,0.00690308,
2060,-0.0146484,0.0069458,
2062,-0.00427246,0.00697021,
2064,-0.000610352,0.00690918,
2066,-0.0158691,0.00705566,
2068,-0.000610352,0.00701294,
2070,-0.0012207,0.0069458,
2072,-0.00427246,0.00697021,
2074,-0.00976563,0.00703125,
2076,0.00366211,0.00705566,
2078,-0.0012207,0.00701294,
2080,-0.00366211,0.00702515,
2082,-0.00610352,0.0069458,
2084,-0.0012207,0.00692139,
2086,-0.00366211,0.00690918,
2088,-0.00671387,0.0069458,
2090,-0.00732422,0.0069458,
2092,-0.00244141,0.00696411,
2094,0.00549316,0.00700684,
2096,-0.00549316,0.00704346,
2098,0.00366211,0.00705566,
2100,-0.00244141,0.00705566,
2102,0.00183105,0.00706787,
2104,-0.00244141,0.00700684,
2106,-0.0012207,0.00697632,
2108,-0.0109863,0.0069519,
2110,-0.00976563,0.00701904,
2112,-0.000610352,0.00700073,
2114,-0.0109863,0.00699463,
2116,-0.00610352,0.00703735,
2118,-0.00488281,0.00702515,
2120,-0.0115967,0.0071167,
2122,0.0164795,0.00723267,
2124,-0.0109863,0.00723267,
2126,-0.012207,0.00731812,
2128,0.00183105,0.00732422,
2130,0.00915527,0.00741577,
2132,0.000610352,0.00733032,
2134,-0.0183105,0.00745239,
2136,0.00549316,0.00739746,
2138,-0.00915527,0.00731812,
2140,-0.0128174,0.00734253,
2142,0.00366211,0.00731812,
2144,0.00183105,0.00723877,
2146,0.000610352,0.00714722,
2148,-0.0177002,0.00730591,
2150,0.00183105,0.00713501,
2152,0.00183105,0.00714722,
2154,0.00244141,0.00712891,
2156,-0.00427246,0.00715942,
2158,-0.00183105,0.00709839,
2160,-0.00549316,0.00713501,
2162,0,0.00708008,
2164,0.00183105,0.00696411,
2166,-0.00793457,0.00696411,
2168,-0.00549316,0.00700073,
2170,0.00610352,0.00697632,
2172,-0.0146484,0.00699463,
2174,-0.00427246,0.00693359,
2176,-0.00427246,0.00689087,
2178,-0.0146484,0.00696411,
2180,-0.012207,0.00697021,
2182,-0.00732422,0.00702515,
2184,-0.0134277,0.00708008,
2186,-0.0115967,0.00697021,
2188,-0.0115967,0.00697632,
2190,-0.0128174,0.00703735,
2192,-0.00610352,0.00697632,
2194,-0.00366211,0.00698242,
2196,-0.00366211,0.00690918,
2198,-0.00854492,0.00690308,
2200,-0.0115967,0.00700073,
2202,-0.00915527,0.00699463,
2204,-0.00305176,0.00695801,
2206,-0.0146484,0.00703735,
2208,-0.00549316,0.00698242,
2210,-0.00793457,0.00704346,
2212,-0.00183105,0.00701294,
2214,0.00305176,0.0069458,
2216,-0.00671387,0.00700073,
2218,-0.00549316,0.00695801,
2220,0.00366211,0.00687866,
2222,0.00854492,0.00683594,
2224,-0.0152588,0.0067688,
2226,0.00305176,0.0067688,
2228,-0.00854492,0.00684204,
2230,-0.0115967,0.0067749,
2232,0,0.00668335,
2234,-0.00854492,0.00670776,
2236,-0.0115967,0.00668945,
2238,-0.00183105,0.00667114,
2240,-0.0109863,0.00673828,
2242,-0.00732422,0.00678711,
2244,0.0134277,0.00675049,
2246,-0.00976563,0.0067688,
2248,-0.0183105,0.0069397,
2250,0.000610352,0.00693359,
2252,-0.00305176,0.00680542,
2254,-0.00854492,0.00678101,
2256,-0.0109863,0.00679321,
2258,-0.0146484,0.00692749,
2260,-0.0134277,0.00691528,
2262,-0.00732422,0.0069458,
2264,-0.00488281,0.00698853,
2266,-0.00793457,0.00690918,
2268,-0.00732422,0.00697632,
2270,-0.00488281,0.00701294,
2272,-0.000610352,0.00697632,
2274,-0.00427246,0.00692139,
2276,-0.00976563,0.00698242,
2278,-0.00671387,0.00703735,
2280,-0.00732422,0.00707397,
2282,-0.00366211,0.00704956,
2284,-0.012207,0.00715942,
2286,0.0012207,0.00713501,
2288,0.000610352,0.00707397,
2290,-0.0128174,0.00712891,
2292,-0.00427246,0.00714722,
2294,0.0109863,0.00720215,
2296,-0.0140381,0.0072876,
2298,-0.00854492,0.00733643,
2300,0.00427246,0.00735474,
2302,-0.00854492,0.00742187,
2304,-0.00549316,0.00745239,
2306,-0.0115967,0.00755615,
2308,0,0.00744629,
2310,-0.00366211,0.00738525,
2312,-0.0128174,0.00750732,
2314,-0.00549316,0.00745239,
2316,0.0177002,0.00756836,
2318,-0.0274658,0.00779419,
2320,-0.0109863,0.00778809,
2322,0.0341797,0.00796509,
2324,-0.0274658,0.00812988,
2326,-0.00976563,0.00810547,
2328,0.00671387,0.0081543,
2330,0.00488281,0.00811157,
2332,-0.0115967,0.00822144,
2334,-0.00488281,0.00808716,
2336,-0.00976563,0.00812988,
2338,-0.00305176,0.00806885,
2340,-0.0109863,0.00805054,
2342,-0.00549316,0.00806885,
2344,0.000610352,0.00805664,
2346,-0.0201416,0.00825195,
2348,-0.00671387,0.00814209,
2350,-0.00793457,0.00820313,
2352,0.000610352,0.00819092,
2354,-0.00671387,0.00823364,
2356,-0.0012207,0.00820313,
2358,-0.012207,0.00830688,
2360,-0.00305176,0.00828247,
2362,-0.00427246,0.0083252,
2364,-0.00244141,0.0083313,
2366,-0.00915527,0.00834351,
2368,-0.00854492,0.00837402,
2370,-0.00244141,0.0083374,
2372,-0.0012207,0.00820313,
2374,-0.0213623,0.00837402,
2376,0.00671387,0.00839844,
2378,-0.00732422,0.0083252,
2380,-0.0134277,0.0083374,
2382,-0.00732422,0.0083374,
2384,-0.00732422,0.00827637,
2386,-0.00732422,0.00823364,
2388,-0.00183105,0.00813599,
2390,-0.0012207,0.00802002,
2392,-0.00244141,0.0079834,
2394,-0.00854492,0.00803223,
2396,-0.00427246,0.00803833,
2398,0.00366211,0.0079895,
2400,0.00244141,0.00789795,
2402,0.00305176,0.00783691,
2404,-0.00976563,0.00790405,
2406,0.000610352,0.00776367,
2408,0.00366211,0.00774536,
2410,-0.0128174,0.00779419,
2412,0.00610352,0.00783691,
2414,0.00610352,0.00786743,
2416,-0.00610352,0.00786133,
2418,0.00244141,0.00783081,
2420,-0.00183105,0.0078125,
2422,0.00610352,0.00778809,
2424,-0.00366211,0.00767212,
2426,-0.00671387,0.00770874,
2428,-0.00305176,0.00765381,
2430,0.00427246,0.00758057,
2432,-0.010376,0.00768433,
2434,-0.010376,0.00770264,
2436,0.00427246,0.00762939,
2438,-0.010376,0.00771484,
2440,-0.00488281,0.00765381,
2442,0,0.00758057,
2444,-0.00732422,0.00751953,
2446,-0.00915527,0.00751343,
2448,-0.00366211,0.00736694,
2450,-0.00183105,0.00737915,
2452,-0.00488281,0.00739746,
2454,-0.0146484,0.0074585,
2456,0.00427246,0.00739136,
2458,-0.00915527,0.00733643,
2460,-0.00305176,0.00723267,
2462,-0.0128174,0.0072876,
2464,-0.0115967,0.00735474,
2466,0.000610352,0.00728149,
2468,-0.010376,0.00731201,
2470,-0.010376,0.00736694,
2472,-0.0213623,0.00757446,
2474,0.00793457,0.00761108,
2476,-0.012207,0.0076355,
2478,-0.00549316,0.00762329,
2480,-0.0158691,0.00770874,
2482,-0.00549316,0.00772705,
2484,-0.0164795,0.00776978,
2486,0.00488281,0.0078064,
2488,-0.00244141,0.00782471,
2490,-0.0152588,0.00784912,
2492,-0.00915527,0.00789795,
2494,-0.00671387,0.00785522,
2496,0.00244141,0.00773926,
2498,-0.00732422,0.00772705,
2500,-0.00549316,0.00773926,
2502,-0.00549316,0.00770874,
2504,-0.0164795,0.0078186,
2506,0.00305176,0.00773315,
2508,-0.0109863,0.00784302,
2510,-0.00732422,0.00787964,
2512,-0.0012207,0.00776367,
2514,-0.0152588,0.00786133,
2516,0.000610352,0.00769043,
2518,0.00183105,0.00743408,
2520,-0.0250244,0.00757446,
2522,0.0109863,0.00734253,
2524,-0.0152588,0.00722046,
2526,-0.00915527,0.00721436,
2528,0,0.00714722,
2530,-0.0189209,0.0072876,
2532,-0.00732422,0.00724487,
2534,-0.0189209,0.00738525,
2536,-0.0134277,0.00742187,
2538,-0.010376,0.00749512,
2540,0.00549316,0.00744019,
2542,-0.0231934,0.00761719,
2544,-0.00488281,0.00765991,
2546,-0.00183105,0.00747681,
2548,-0.0012207,0.00742187,
2550,0.0012207,0.00735474,
2552,-0.00366211,0.00738525,
2554,0.00671387,0.00738525,
2556,-0.0134277,0.00750732,
2558,0.00183105,0.00740356,
2560,-0.00732422,0.00744629,
2562,-0.00793457,0.00748291,
2564,-0.010376,0.00756226,
2566,0.00366211,0.00750732,
2568,-0.0164795,0.00758667,
2570,0.00610352,0.00762329,
2572,-0.00915527,0.00770264,
2574,-0.00427246,0.00753174,
2576,0.00610352,0.00752563,
2578,-0.00854492,0.00753784,
2580,-0.0140381,0.00754395,
2582,-0.0115967,0.00758667,
2584,-0.0195313,0.00770874,
2586,-0.0250244,0.00788574,
2588,-0.0250244,0.00811768,
2590,-0.012207,0.00822754,
2592,-0.0341797,0.00854492,
2594,-0.0219727,0.0086792,
2596,-0.012207,0.00875854,
2598,-0.0231934,0.00895386,
2600,-0.0115967,0.00904541,
2602,-0.0164795,0.00917969,
2604,-0.0109863,0.00919189,
2606,-0.0170898,0.00935669,
2608,-0.0109863,0.00942993,
2610,-0.012207,0.00942383,
2612,-0.0213623,0.00957642,
2614,-0.0146484,0.00966187,
2616,-0.022583,0.00982666,
2618,0.000610352,0.00980835,
2620,-0.012207,0.00991211,
2622,-0.0262451,0.0101135,
2624,-0.00183105,0.0100952,
2626,-0.00488281,0.0100769,
2628,-0.00305176,0.0100769,
2630,-0.0134277,0.0101685,
2632,-0.00854492,0.0101501,
2634,-0.00488281,0.0100952,
2636,-0.010376,0.0101563,
2638,-0.00305176,0.010083,
2640,-0.0152588,0.0101868,
2642,0.00610352,0.0102478,
2644,-0.00549316,0.0102295,
2646,-0.0231934,0.0103699,
2648,0.00244141,0.0103577,
2650,0.00488281,0.0103882,
2652,-0.00671387,0.0104065,
2654,0.000610352,0.0102661,
2656,0.00671387,0.0102905,
2658,-0.00427246,0.0102417,
2660,0.00915527,0.0103027,
2662,0.0286865,0.0104614,
2664,-0.00244141,0.0103699,
2666,0.020752,0.0105713,
2668,0.0195313,0.0106628,
2670,0.0146484,0.0107056,
2672,0.0140381,0.0106323,
2674,0.00793457,0.0106323,
2676,0.0115967,0.0106262,
2678,0.00732422,0.0106445,
2680,0.00915527,0.0105774,
2682,-0.00244141,0.0105469,
2684,0.0201416,0.0105835,
2686,0.00244141,0.0105591,
2688,-0.000610352,0.0105408,
2690,0.00366211,0.0104248,
2692,0.0140381,0.0104736,
2694,-0.0012207,0.0104187,
2696,0.00366211,0.0104309,
2698,0.00366211,0.0103943,
2700,0.00976563,0.010437,
2702,-0.00915527,0.0104736,
2704,0.00183105,0.0103271,
2706,0.00244141,0.010321,
2708,0.00183105,0.0102295,
2710,0.00732422,0.0102295,
2712,-0.0134277,0.0103516,
2714,-0.000610352,0.0102051,
2716,0.00793457,0.0102783,
2718,-0.00915527,0.0103516,
2720,-0.00671387,0.0101685,
2722,-0.0012207,0.0100708,
2724,0.00488281,0.00996704,
2726,-0.00976563,0.00997314,
2728,0.00244141,0.00999756,
2730,-0.00976563,0.00990601,
2732,0.0128174,0.00996094,
2734,-0.012207,0.0098938,
2736,-0.00671387,0.00982666,
2738,-0.00610352,0.00978394,
2740,0.00976563,0.00982666,
2742,0.00671387,0.00966187,
2744,-0.0128174,0.00974121,
2746,-0.000610352,0.009729,
2748,0.00549316,0.00977173,
2750,-0.000610352,0.00976563,
2752,0.00305176,0.00975952,
2754,-0.00427246,0.00973511,
2756,-0.00610352,0.00966187,
2758,-0.00915527,0.00973511,
2760,0,0.00966187,
2762,0.000610352,0.00958862,
2764,-0.00671387,0.009552,
2766,-0.00183105,0.00953369,
2768,0.00610352,0.00942993,
2770,-0.00427246,0.00941162,
2772,-0.00793457,0.00939941,
2774,-0.00488281,0.00940552,
2776,0.0012207,0.00935669,
2778,-0.0012207,0.00928345,
2780,-0.0109863,0.00925293,
2782,-0.0109863,0.00924683,
2784,-0.00488281,0.00910034,
2786,0.00244141,0.00887451,
2788,-0.00427246,0.00866699,
2790,-0.00854492,0.00863037,
2792,-0.00976563,0.00838623,
2794,-0.00183105,0.00818481,
2796,-0.00610352,0.00812378,
2798,-0.010376,0.00799561,
2800,-0.00549316,0.00793457,
2802,0.00244141,0.00779419,
2804,-0.0115967,0.00780029,
2806,-0.00549316,0.00768433,
2808,0.000610352,0.00758057,
2810,-0.0012207,0.0074707,
2812,0.00671387,0.00732422,
2814,-0.00976563,0.00727539,
2816,0,0.00704956,
2818,0.010376,0.00714722,
2820,-0.0109863,0.00713501,
2822,0.00183105,0.00689087,
2824,-0.00488281,0.00692139,
2826,0.00183105,0.00689087,
2828,-0.00305176,0.00689087,
2830,-0.00854492,0.00684204,
2832,-0.0128174,0.00688477,
2834,-0.00244141,0.00686035,
2836,0.00244141,0.00678101,
2838,-0.00366211,0.00678711,
2840,-0.00915527,0.00672607,
2842,-0.00244141,0.00668945,
2844,0.00549316,0.00668945,
2846,-0.00244141,0.00648193,
2848,-0.0012207,0.00646973,
2850,0,0.0064209,
2852,0.000610352,0.00635986,
2854,0.00549316,0.00640869,
2856,-0.00427246,0.00638428,
2858,-0.0164795,0.00650635,
2860,-0.00854492,0.00650024,
2862,0.0012207,0.00622559,
2864,-0.00854492,0.00628662,
2866,-0.00671387,0.00614624,
2868,-0.0146484,0.00609741,
2870,-0.000610352,0.00595703,
2872,-0.00183105,0.00583496,
2874,-0.00366211,0.00579224,
2876,-0.00671387,0.00574341,
2878,0,0.00567017,
2880,0.00183105,0.00559692,
2882,-0.00793457,0.00565186,
2884,-0.00244141,0.00547485,
2886,-0.00549316,0.00550537,
2888,-0.00671387,0.00556641,
2890,0.00610352,0.00559082,
2892,-0.00366211,0.00548706,
2894,-0.00549316,0.00552979,
2896,-0.00610352,0.0055542,
2898,-0.00244141,0.00554199,
2900,0.000610352,0.00545044,
2902,-0.00488281,0.00540771,
2904,-0.00854492,0.00547485,
2906,-0.00244141,0.00547485,
2908,-0.00305176,0.00548706,
2910,-0.00915527,0.00550537,
2912,-0.00366211,0.00540771,
2914,-0.0158691,0.0055603,
2916,-0.00366211,0.00551758,
2918,0.00488281,0.00547485,
2920,0.000610352,0.00541382,
2922,-0.0268555,0.00567017,
2924,0.00427246,0.00566406,
2926,0.010376,0.00567017,
2928,-0.020752,0.00585327,
2930,-0.00305176,0.00578613,
2932,-0.0128174,0.00578613,
2934,0.00183105,0.00568237,
2936,-0.00976563,0.00571289,
2938,-0.0012207,0.00566406,
2940,-0.0183105,0.00574951,
2942,-0.00671387,0.00574951,
2944,-0.00793457,0.00570068,
2946,0.000610352,0.00570068,
2948,-0.0134277,0.00578003,
2950,-0.00366211,0.00581055,
2952,-0.0164795,0.00594482,
2954,-0.00610352,0.00596313,
2956,0.00488281,0.00595093,
2958,-0.0128174,0.00598755,
2960,-0.012207,0.00610962,
2962,-0.00244141,0.00612793,
2964,-0.00610352,0.00612183,
2966,-0.00366211,0.00614014,
2968,0.00488281,0.00612793,
2970,-0.00732422,0.00615845,
2972,-0.0231934,0.00631104,
2974,0.00183105,0.00628052,
2976,-0.00183105,0.00628662,
2978,-0.010376,0.00637817,
2980,-0.010376,0.00637207,
2982,-0.0115967,0.00637817,
2984,-0.012207,0.00645142,
2986,-0.0231934,0.00665894,
2988,-0.0140381,0.00675659,
2990,-0.0280762,0.0069519,
2992,-0.0250244,0.00710449,
2994,-0.022583,0.00731201,
2996,-0.0335693,0.00758667,
2998,-0.0317383,0.00780029,
3000,-0.0244141,0.0079895,
3002,-0.022583,0.00819092,
3004,-0.0378418,0.00845337,
3006,-0.0268555,0.00866699,
3008,-0.00366211,0.00869751,
3010,-0.0341797,0.0090271,
3012,-0.0183105,0.00914307,
3014,-0.00183105,0.00906372,
3016,-0.022583,0.00928955,
3018,-0.0213623,0.00939941,
3020,0.000610352,0.00929565,
3022,-0.0140381,0.00941772,
3024,-0.010376,0.00947266,
3026,-0.0115967,0.00957031,
3028,-0.0189209,0.009729,
3030,-0.00854492,0.009729,
3032,-0.00854492,0.00968628,
3034,-0.00854492,0.00974731,
3036,-0.0115967,0.00983887,
3038,-0.0115967,0.00991821,
3040,-0.00183105,0.00984497,
3042,0.00427246,0.00986328,
3044,-0.0128174,0.00993652,
3046,-0.00549316,0.00996704,
3048,-0.0109863,0.0100647,
3050,0.00976563,0.0101624,
3052,-0.00549316,0.0102112,
3054,-0.00732422,0.0102295,
3056,0.000610352,0.0101929,
3058,-0.00427246,0.0100708,
3060,0.00732422,0.0100586,
3062,0.00854492,0.0101318,
3064,-0.00427246,0.0100891,
3066,0.00305176,0.0100525,
3068,0.012207,0.0100281,
3070,0.012207,0.010144,
3072,-0.00549316,0.0101807,
3074,0.00183105,0.0101624,
3076,0.00244141,0.0101196,
3078,0.0134277,0.0102539,
3080,-0.00366211,0.0102722,
3082,0.0115967,0.0103088,
3084,-0.00244141,0.0103088,
3086,0.0128174,0.0103821,
3088,0.0109863,0.0104248,
3090,0.00854492,0.0104492,
3092,-0.00427246,0.0104553,
3094,0.010376,0.0105042,
3096,0.0128174,0.0105713,
3098,0.010376,0.0106506,
3100,-0.00671387,0.0107117,
3102,0.00793457,0.0107422,
3104,-0.00183105,0.010675,
3106,0.00183105,0.0106689,
3108,0.0146484,0.0107849,
3110,-0.0219727,0.0109131,
3112,0.00610352,0.0109375,
3114,0.00915527,0.0108704,
3116,0,0.0108337,
3118,0.00183105,0.0108032,
3120,0.00366211,0.0108337,
3122,-0.00183105,0.0105835,
3124,0.00305176,0.0105713,
3126,0,0.0104675,
3128,-0.0012207,0.0102722,
3130,-0.00427246,0.0102844,
3132,-0.00305176,0.0101868,
3134,-0.00244141,0.0101929,
3136,0,0.0100952,
3138,-0.0189209,0.0102722,
3140,0.00488281,0.0101379,
3142,0.00183105,0.0100891,
3144,-0.00915527,0.0101013,
3146,0.010376,0.010199,
3148,-0.0140381,0.0102051,
3150,-0.00305176,0.010199,
3152,0.00854492,0.0101196,
3154,-0.00427246,0.0101013,
3156,-0.00366211,0.0100891,
3158,-0.00244141,0.00998535,
3160,-0.00549316,0.00991821,
3162,0.000610352,0.0098999,
3164,-0.0140381,0.00997925,
3166,0.012207,0.0100647,
3168,-0.00244141,0.0100403,
3170,-0.0183105,0.0101501,
3172,0.000610352,0.00992432,
3174,-0.00244141,0.00993042,
3176,0.00366211,0.00994873,
3178,-0.0219727,0.0100647,
3180,-0.00366211,0.00999756,
3182,-0.0109863,0.00999146,
3184,-0.00427246,0.00991211,
3186,0,0.00968018,
3188,-0.00732422,0.00961304,
3190,-0.000610352,0.00933838,
3192,0.0012207,0.00910034,
3194,0.00854492,0.00895996,
3196,-0.00793457,0.00870361,
3198,-0.00610352,0.00844727,
3200,0.0012207,0.00821533,
3202,0.00305176,0.00802002,
3204,-0.00366211,0.00767822,
3206,-0.00793457,0.00748901,
3208,-0.0183105,0.0076355,
3210,-0.0012207,0.00730591,
3212,-0.00732422,0.00719604,
3214,-0.0109863,0.0072876,
3216,-0.00915527,0.00715332,
3218,-0.00305176,0.00697021,
3220,-0.00976563,0.00706177,
3222,-0.0012207,0.00693359,
3224,0.00244141,0.00685425,
3226,-0.00671387,0.00680542,
3228,0.00305176,0.00664673,
3230,-0.0164795,0.00672607,
3232,-0.00305176,0.00667114,
3234,-0.0012207,0.0065979,
3236,-0.0152588,0.00663452,
3238,-0.00427246,0.00656128,
3240,-0.0219727,0.0067627,
3242,-0.00854492,0.00680542,
3244,-0.00976563,0.0067749,
3246,-0.00732422,0.00679321,
3248,-0.0158691,0.00684204,
3250,-0.00366211,0.00678101,
3252,-0.00305176,0.00675659,
3254,-0.00488281,0.00673218,
3256,-0.00549316,0.00678101,
3258,0.000610352,0.00674438,
3260,0.0128174,0.00679932,
3262,-0.0152588,0.00686646,
3264,-0.00488281,0.00687256,
3266,-0.0012207,0.00685425,
3268,-0.00488281,0.00678101,
3270,-0.0140381,0.00679932,
3272,-0.00488281,0.00679321,
3274,-0.0201416,0.00697632,
3276,-0.0152588,0.00710449,
3278,-0.0012207,0.00698242,
3280,-0.0115967,0.00706177,
3282,-0.00915527,0.00703735,
3284,-0.00732422,0.00708618,
3286,0.000610352,0.00696411,
3288,-0.0134277,0.00698853,
3290,-0.00488281,0.0069519,
3292,0.000610352,0.00691528,
3294,0.00244141,0.00683594,
3296,-0.0170898,0.00687866,
3298,0.0256348,0.00703125,
3300,-0.0140381,0.00710449,
3302,-0.0140381,0.00716553,
3304,-0.00732422,0.00722046,
3306,0.00488281,0.00725098,
3308,-0.0152588,0.00725708,
3310,-0.0244141,0.00728149,
3312,-0.0170898,0.00739136,
3314,-0.00366211,0.00733643,
3316,-0.0115967,0.00745239,
3318,-0.0128174,0.00756226,
3320,-0.00671387,0.00759277,
3322,-0.00610352,0.0076355,
3324,-0.00671387,0.00767212,
3326,-0.00305176,0.00770264,
3328,-0.00183105,0.00770874,
3330,0.00915527,0.00775757,
3332,-0.0183105,0.00791016,
3334,-0.00488281,0.00793457,
3336,0.012207,0.00805664,
3338,-0.0128174,0.00799561,
3340,-0.00305176,0.00797729,
3342,-0.00305176,0.0079895,
3344,-0.00366211,0.00793457,
3346,-0.00183105,0.00784912,
3348,-0.0231934,0.00794067,
3350,0.00305176,0.00794067,
3352,-0.00915527,0.00794678,
3354,-0.00549316,0.00795898,
3356,-0.00610352,0.0079834,
3358,-0.00549316,0.00801392,
3360,-0.00732422,0.00803223,
3362,-0.00427246,0.00806885,
3364,0.000610352,0.00793457,
3366,-0.00427246,0.00785522,
3368,-0.00488281,0.00787964,
3370,-0.0109863,0.0078064,
3372,0.00244141,0.00782471,
3374,-0.00244141,0.00782471,
3376,-0.0164795,0.00795288,
3378,-0.00854492,0.0078186,
3380,0.00549316,0.00783691,
3382,-0.0256348,0.0079834,
3384,0,0.00794067,
3386,0.0115967,0.00805664,
3388,-0.020752,0.00819092,
3390,-0.00976563,0.00828247,
3392,0.000610352,0.00827637,
3394,-0.00732422,0.00826416,
3396,-0.00488281,0.00823364,
3398,-0.00732422,0.00824585,
3400,-0.00305176,0.00826416,
3402,-0.00366211,0.00827026,
3404,-0.00366211,0.00827026,
3406,-0.00427246,0.00823364,
3408,-0.00305176,0.00808105,
3410,0.00488281,0.00811768,
3412,-0.00488281,0.00809326,
3414,-0.00732422,0.00805664,
3416,-0.00732422,0.00803833,
3418,-0.0164795,0.00817261,
3420,-0.000610352,0.00808105,
3422,-0.00549316,0.00812378,
3424,-0.00671387,0.0081665,
3426,-0.00549316,0.0081543,
3428,-0.012207,0.00824585,
3430,0.00183105,0.00809937,
3432,-0.00305176,0.00809937,
3434,0.00366211,0.00812378,
3436,-0.00793457,0.00805054,
3438,-0.0146484,0.0081543,
3440,-0.0109863,0.00804443,
3442,0.00366211,0.00799561,
3444,-0.00793457,0.00797729,
3446,-0.0115967,0.00802002,
3448,-0.00793457,0.00794067,
3450,0.000610352,0.00791016,
3452,-0.00488281,0.00792847,
3454,-0.00366211,0.00791626,
3456,-0.00366211,0.00789795,
3458,-0.00488281,0.00794067,
3460,0.00183105,0.00783081,
3462,-0.00366211,0.00771484,
3464,-0.00732422,0.00773926,
3466,-0.00488281,0.00777588,
3468,0,0.00772705,
3470,-0.0170898,0.00775757,
3472,-0.0219727,0.00792847,
3474,-0.00305176,0.00775757,
3476,-0.0128174,0.00773315,
3478,-0.0427246,0.00814819,
3480,-0.0140381,0.00817261,
3482,-0.0280762,0.00836182,
3484,-0.0244141,0.00853271,
3486,-0.0140381,0.00866699,
3488,-0.0372314,0.00890503,
3490,-0.0317383,0.00917358,
3492,-0.00854492,0.00925293,
3494,-0.0213623,0.00944214,
3496,-0.0158691,0.00942993,
3498,-0.0335693,0.00950928,
3500,0.00732422,0.00944214,
3502,-0.0201416,0.00950317,
3504,-0.0213623,0.00964355,
3506,-0.00610352,0.00965576,
3508,-0.00305176,0.00953369,
3510,0.0012207,0.00930176,
3512,-0.0262451,0.00939331,
3514,-0.00549316,0.00941162,
3516,-0.00183105,0.00931396,
3518,-0.0140381,0.00932617,
3520,-0.0146484,0.00940552,
3522,-0.00671387,0.00941162,
3524,0.00427246,0.00938721,
3526,0.00427246,0.00939941,
3528,-0.00732422,0.00945435,
3530,0.00488281,0.00941162,
3532,-0.000610352,0.00923462,
3534,0.0201416,0.00938721,
3536,-0.000610352,0.00927124,
3538,-0.000610352,0.00914917,
3540,0.00610352,0.00917969,
3542,0.00427246,0.00919189,
3544,0.00183105,0.00917358,
3546,0.00793457,0.00923462,
3548,-0.00305176,0.0090332,
3550,0.00732422,0.00907593,
3552,0.00732422,0.00905762,
3554,-0.0012207,0.00901489,
3556,0.0128174,0.00908203,
3558,0.00610352,0.00908813,
3560,-0.00976563,0.00911255,
3562,0.00915527,0.00916138,
3564,0.00366211,0.00919189,
3566,0.00915527,0.00924072,
3568,0.0012207,0.0092041,
3570,-0.000610352,0.00910034,
3572,0.00244141,0.00910034,
3574,0.0140381,0.00921631,
3576,-0.000610352,0.00905762,
3578,-0.00244141,0.00899658,
3580,0.00976563,0.00903931,
3582,0.0012207,0.00879517,
3584,0.0128174,0.00892334,
3586,-0.00976563,0.00890503,
3588,-0.00366211,0.00873413,
3590,-0.00366211,0.0086731,
3592,-0.010376,0.00877075,
3594,0.0231934,0.00892944,
3596,-0.00854492,0.00896606,
3598,-0.00976563,0.00899048,
3600,0.00732422,0.0090332,
3602,0.00732422,0.00906982,
3604,0,0.0090332,
3606,0.00427246,0.0090332,
3608,0.00305176,0.0090332,
3610,0.00488281,0.0090332,
3612,-0.00549316,0.00903931,
3614,0.012207,0.00908813,
3616,-0.00854492,0.00910034,
3618,0.00183105,0.00895386,
3620,0.0012207,0.00895996,
3622,0.000610352,0.00891113,
3624,-0.00610352,0.00890503,
3626,0.00305176,0.00888062,
3628,0,0.00875854,
3630,0.00427246,0.00878296,
3632,-0.00610352,0.00881348,
3634,-0.00366211,0.00881348,
3636,0.0012207,0.00874634,
3638,0.00366211,0.00863647,
3640,0.00671387,0.00859375,
3642,-0.0115967,0.0086731,
3644,-0.0152588,0.00874634,
3646,0.00366211,0.00866699,
3648,-0.00793457,0.00866699,
3650,-0.00488281,0.00870972,
3652,-0.0183105,0.00884399,
3654,-0.00366211,0.00884399,
3656,-0.00427246,0.0088501,
3658,-0.020752,0.00900879,
3660,-0.00244141,0.00901489,
3662,-0.00610352,0.00903931,
3664,-0.0164795,0.00913086,
3666,-0.00366211,0.00911865,
3668,-0.0012207,0.00913086,
3670,-0.00915527,0.00905151,
3672,-0.0109863,0.00894165,
3674,-0.012207,0.0090332,
3676,-0.00305176,0.00893555,
3678,-0.00366211,0.00854492,
3680,-0.00244141,0.00842896,
3682,0.0109863,0.00825806,
3684,-0.00793457,0.00809326,
3686,0.00854492,0.00803833,
3688,-0.0164795,0.00783081,
3690,0.0012207,0.00752563,
3692,-0.00488281,0.00748901,
3694,-0.00366211,0.00731201,
3696,-0.00915527,0.00724487,
3698,-0.00793457,0.00698853,
3700,-0.0134277,0.00704956,
3702,-0.00244141,0.00687256,
3704,0.00854492,0.00674438,
3706,-0.0177002,0.00686035,
3708,0.00427246,0.00687256,
3710,0.00183105,0.00687866,
3712,0,0.00661621,
3714,-0.0140381,0.00670166,
3716,-0.00976563,0.00678101,
3718,-0.00671387,0.00670776,
3720,-0.00183105,0.00657959,
3722,-0.0170898,0.00668335,
3724,0.000610352,0.00664673,
3726,-0.012207,0.00672607,
3728,0.0109863,0.0067627,
3730,-0.00549316,0.0067688,
3732,0.0012207,0.0067749,
3734,-0.0115967,0.00668945,
3736,0.0164795,0.00684814,
3738,-0.0128174,0.00697021,
3740,-0.00244141,0.00693359,
3742,-0.00427246,0.00693359,
3744,0.00610352,0.00697632,
3746,0.0012207,0.00690918,
3748,-0.0195313,0.00707397,
3750,-0.00488281,0.00704956,
3752,0.00183105,0.00699463,
3754,-0.00366211,0.00701904,
3756,-0.000610352,0.00689697,
3758,-0.0189209,0.00702515,
3760,0.0146484,0.00707397,
3762,-0.0158691,0.00714111,
3764,-0.00732422,0.00717773,
3766,0.00488281,0.00713501,
3768,-0.00488281,0.00717163,
3770,-0.00854492,0.00725098,
3772,-0.00915527,0.00731812,
3774,-0.0115967,0.0072937,
3776,0,0.0072876,
3778,-0.0109863,0.00737305,
3780,-0.0140381,0.00741577,
3782,0.00854492,0.00748901,
3784,0,0.00736084,
3786,-0.0146484,0.00740967,
3788,0.00976563,0.0074707,
3790,-0.012207,0.00755615,
3792,-0.00549316,0.00750732,
3794,-0.012207,0.00739746,
3796,-0.000610352,0.00731812,
3798,-0.00305176,0.00725098,
3800,-0.00854492,0.00726318,
3802,-0.00793457,0.00726929,
3804,0.00183105,0.0072876,
3806,-0.0115967,0.00736084,
3808,0.00244141,0.00735474,
3810,-0.000610352,0.00731201,
3812,-0.00915527,0.00734863,
3814,-0.00427246,0.00726929,
3816,-0.010376,0.0072876,
3818,-0.0115967,0.00738525,
3820,-0.00671387,0.00744019,
3822,0.00610352,0.00749512,
3824,-0.0164795,0.00759888,
3826,-0.00488281,0.00761719,
3828,-0.00549316,0.00767212,
3830,0.00854492,0.00771484,
3832,-0.0170898,0.00782471,
3834,-0.012207,0.00791016,
3836,-0.00366211,0.00793457,
3838,-0.0164795,0.00806274,
3840,-0.00610352,0.00805664,
3842,-0.00854492,0.00802612,
3844,-0.0115967,0.0079895,
3846,-0.00244141,0.00797729,
3848,-0.00305176,0.00792847,
3850,-0.0115967,0.00799561,
3852,-0.00549316,0.00786743,
3854,0.00427246,0.00787354,
3856,-0.00732422,0.00790405,
3858,-0.00488281,0.00774536,
3860,0.00183105,0.00773926,
3862,-0.0109863,0.00778809,
3864,-0.00549316,0.00767822,
3866,0.00305176,0.00767212,
3868,-0.012207,0.00778198,
3870,0.0012207,0.00770264,
3872,-0.00854492,0.00767822,
3874,-0.010376,0.00765991,
3876,-0.00183105,0.00764771,
3878,0.0012207,0.00762329,
3880,-0.00427246,0.0076416,
3882,-0.020752,0.00773926,
3884,0.00732422,0.00773315,
3886,-0.0219727,0.00786743,
3888,-0.0109863,0.0078125,
3890,-0.0115967,0.00791626,
3892,-0.012207,0.0079895,
3894,-0.0109863,0.00806274,
3896,-0.0238037,0.00820923,
3898,-0.0134277,0.00826416,
3900,0.00610352,0.00819092,
3902,-0.0244141,0.00841064,
3904,0.00366211,0.00836182,
3906,-0.00183105,0.00820313,
3908,-0.0140381,0.00830078,
3910,-0.0146484,0.00842896,
3912,0.00732422,0.0085022,
3914,-0.010376,0.00846558,
3916,-0.0183105,0.00855103,
3918,-0.00305176,0.0085144,
3920,-0.0115967,0.00861206,
3922,-0.00183105,0.00845947,
3924,-0.00793457,0.00853271,
3926,-0.00427246,0.00845337,
3928,0.00976563,0.00844116,
3930,-0.0195313,0.00858154,
3932,0.00915527,0.00866089,
3934,0.0115967,0.00866089,
3936,-0.0189209,0.0086853,
3938,-0.00610352,0.00861816,
3940,0.00610352,0.00865479,
3942,-0.00488281,0.00866089,
3944,-0.0250244,0.0088501,
3946,-0.0134277,0.00897217,
3948,-0.0140381,0.00891724,
3950,-0.00793457,0.00894775,
3952,0.00610352,0.00899048,
3954,-0.0189209,0.00914307,
3956,-0.0231934,0.0093689,
3958,0.00732422,0.00925293,
3960,-0.00915527,0.009198,
3962,-0.00549316,0.00909424,
3964,-0.00671387,0.00908813,
3966,0.0177002,0.00921631,
3968,-0.0170898,0.00933838,
3970,-0.0128174,0.0093811,
3972,0.00244141,0.00931396,
3974,0.0134277,0.00933228,
3976,-0.020752,0.00953979,
3978,0.00793457,0.00950928,
3980,-0.0012207,0.0093811,
3982,-0.00732422,0.0093689,
3984,-0.00671387,0.00943604,
3986,0.0134277,0.00942383,
3988,-0.0146484,0.00947266,
3990,-0.0134277,0.00948486,
3992,-0.0012207,0.00944214,
3994,-0.022583,0.0095459,
3996,-0.020752,0.00974731,
3998,0.0463867,0.0101807,
4000,-0.0427246,0.0105225,
4002,0.00671387,0.0105103,
4004,-0.0177002,0.0106689,
4006,0.0128174,0.0106812,
4008,0.00427246,0.0106995,
4010,-0.0115967,0.0108093,
4012,-0.0146484,0.0108643,
4014,-0.0109863,0.0109314,
4016,-0.010376,0.0109314,
4018,-0.00793457,0.0108948,
4020,-0.00610352,0.0108887,
4022,-0.0134277,0.0109619,
4024,-0.0164795,0.0109619,
4026,0.0201416,0.0111145,
4028,-0.0146484,0.0112061,
4030,-0.0268555,0.0113892,
4032,0.0152588,0.0113708,
4034,-0.00427246,0.0112915,
4036,-0.00488281,0.0113037,
4038,-0.0152588,0.0112915,
4040,0.012207,0.0113525,
4042,-0.010376,0.0113708,
4044,-0.0128174,0.0113831,
4046,0.00610352,0.0114197,
4048,-0.00793457,0.0114685,
4050,-0.0140381,0.0114929,
4052,0.0189209,0.0116272,
4054,-0.0292969,0.0118774,
4056,-0.00488281,0.011853,
4058,-0.00915527,0.0118958,
4060,-0.0152588,0.01203,
4062,0.00305176,0.0119507,
4064,0.00244141,0.0119202,
4066,-0.0256348,0.012146,
4068,0.0219727,0.0122437,
4070,-0.0244141,0.0124756,
4072,-0.03479,0.012738,
4074,0.012207,0.0127563,
4076,-0.0195313,0.0129333,
4078,-0.0250244,0.0131714,
4080,-0.0622559,0.0137512,
4082,0.00915527,0.0136353,
4084,-0.0793457,0.0143555,
4086,-0.0280762,0.0144165,
4088,-0.0140381,0.014447,
4090,-0.0799561,0.0151306,
4092,0.0311279,0.0153198,
4094,-0.0268555,0.0154785,
4096,-0.0604248,0.0158447,
4098,0.00183105,0.0157288,
4100,0.0274658,0.0159424,
4102,0.0238037,0.0159363,
4104,-0.0366211,0.0162659,
4106,-0.00305176,0.0162781,
4108,0.00915527,0.0162292,
4110,-0.0280762,0.0163635,
4112,-0.00976563,0.0163879,
4114,0.0268555,0.0165527,
4116,-0.0115967,0.0164856,
4118,-0.0170898,0.016626,
4120,-0.020752,0.0167175,
4122,0.0146484,0.0168457,
4124,0.00732422,0.0168396,
4126,0.00488281,0.0168457,
4128,-0.0170898,0.0169189,
4130,0.0170898,0.0168945,
4132,-0.0299072,0.0171021,
4134,0.0244141,0.0172302,
4136,-0.0317383,0.0173584,
4138,-0.0152588,0.01745,
4140,0.0378418,0.0177673,
4142,-0.0012207,0.0177307,
4144,-0.0140381,0.0176208,
4146,-0.012207,0.0176086,
4148,-0.00793457,0.0175476,
4150,0.0158691,0.017627,
4152,0.0720215,0.0182861,
4154,-0.0506592,0.0186035,
4156,0.0158691,0.0185303,
4158,-0.0360107,0.0188171,
4160,0.0244141,0.0189697,
4162,0.0195313,0.0191101,
4164,-0.0463867,0.0195068,
4166,-0.010376,0.0194336,
4168,0.0134277,0.019397,
4170,-0.0421143,0.0196899,
4172,0.03479,0.0200134,
4174,0.022583,0.020105,
4176,-0.032959,0.0202271,
4178,-0.0183105,0.0203308,
4180,0.00610352,0.0203796,
4182,0.00244141,0.0203308,
4184,0.0195313,0.020459,
4186,0.057373,0.0208984,
4188,-0.0830078,0.021582,
4190,0.0012207,0.02146,
4192,0.0482178,0.0219299,
4194,-0.0213623,0.0219177,
4196,-0.0408936,0.0221191,
4198,0.0469971,0.0221252,
4200,0.0390625,0.0220886,
4202,-0.0842285,0.0228638,
4204,-0.0231934,0.0229187,
4206,0.0268555,0.0230591,
4208,-0.0268555,0.0232849,
4210,0.0689697,0.0238586,
4212,-0.0549316,0.0242615,
4214,-0.0286865,0.0244385,
4216,-0.00671387,0.0244019,
4218,-0.00671387,0.0243896,
4220,0.0463867,0.0247925,
4222,-0.0323486,0.0249817,
4224,-0.00244141,0.0248413,
4226,0.0177002,0.0248169,
4228,-0.0213623,0.024884,
4230,-0.00671387,0.0246826,
4232,-0.0317383,0.0248474,
4234,0.0836182,0.0256409,
4236,-0.0219727,0.0258118,
4238,-0.0231934,0.0258911,
4240,-0.0671387,0.0264404,
4242,0.0378418,0.0267151,
4244,-0.0390625,0.0269775,
4246,-0.045166,0.0273682,
4248,0.0335693,0.0276245,
4250,-0.0360107,0.0278442,
4252,-0.0415039,0.0280701,
4254,-0.0140381,0.0279175,
4256,0.00671387,0.0279358,
4258,0.0518799,0.028363,
4260,-0.0427246,0.0286377,
4262,0.0189209,0.0287964,
4264,-0.0146484,0.0289185,
4266,0.00244141,0.0286865,
4268,-0.0354004,0.0288208,
4270,-0.0299072,0.0288757,
4272,-0.0250244,0.0287781,
4274,0.00732422,0.0287292,
4276,-0.012207,0.028656,
4278,-0.0653076,0.0290588,
4280,0.0921631,0.0293579,
4282,0.0183105,0.0294495,
4284,-0.0335693,0.0289917,
4286,0.0268555,0.0289795,
4288,0.00793457,0.0289185,
4290,0.022583,0.0283447,
4292,0.0244141,0.0282776,
4294,-0.0238037,0.0282471,
4296,-0.0817871,0.0284607,
4298,0.10437,0.0294861,
4300,-0.0323486,0.0295349,
4302,0.0256348,0.0295532,
4304,0.0170898,0.0293579,
4306,0.0238037,0.0295654,
4308,0.00732422,0.0295471,
4310,-0.0170898,0.0294373,
4312,-0.0146484,0.0294861,
4314,0.0726318,0.0299438,
4316,0.00671387,0.029895,
4318,-0.0561523,0.0302856,
4320,-0.00366211,0.0301147,
4322,0.0299072,0.0302673,
4324,-0.000610352,0.0302002,
4326,-0.067749,0.0308289,
4328,-0.00732422,0.0307312,
4330,0.0457764,0.0310181,
4332,-0.0616455,0.0313354,
4334,-0.0634766,0.0317261,
4336,0.0201416,0.0316101,
4338,0.0231934,0.0316895,
4340,-0.0567627,0.0318787,
4342,0.0488281,0.0323547,
4344,-0.0244141,0.0324585,
4346,0.00305176,0.0323669,
4348,0.00305176,0.0323181,
4350,-0.0256348,0.0324158,
4352,-0.103149,0.0327271,
4354,0.100708,0.0332275,
4356,0.00366211,0.0331055,
4358,-0.0152588,0.0328979,
4360,-0.00305176,0.0326843,
4362,-0.010376,0.0325928,
4364,0.00793457,0.0322083,
4366,0.00366211,0.0321411,
4368,0.00488281,0.0320557,
4370,0.0402832,0.0320374,
4372,-0.010376,0.0317932,
4374,-0.0708008,0.0322754,
4376,0.000610352,0.0319519,
4378,-0.0128174,0.031897,
4380,-0.0164795,0.0320007,
4382,-0.0891113,0.0328674,
4384,0.0268555,0.0329407,
4386,0.0439453,0.0328064,
4388,-0.00671387,0.0320435,
4390,-0.0323486,0.0323547,
4392,-0.00427246,0.0319153,
4394,0.0311279,0.0320129,
4396,0.0213623,0.0318176,
4398,0.0714111,0.0320618,
4400,-0.0262451,0.0319336,
4402,-0.0439453,0.0315308,
4404,0.0201416,0.0315002,
4406,0.00366211,0.0312683,
4408,-0.0408936,0.0314087,
4410,0.0646973,0.031366,
4412,-0.0158691,0.0309753,
4414,-0.0109863,0.0307983,
4416,0.0128174,0.0308594,
4418,0.010376,0.030896,
4420,0.0372314,0.0308044,
4422,0.00488281,0.0305298,
4424,-0.0476074,0.0309814,
4426,0.0970459,0.0317749,
4428,-0.043335,0.0319946,
4430,-0.022583,0.0321533,
4432,-0.0732422,0.0325684,
4434,0.0408936,0.0321411,
4436,-0.067749,0.0325989,
4438,0.0518799,0.0328857,
4440,-0.0354004,0.0325684,
4442,-0.000610352,0.032196,
4444,-0.0286865,0.0320923,
4446,0.045166,0.0320923,
4448,0.0164795,0.0319214,
4450,-0.00854492,0.0316467,
4452,-0.0323486,0.0315552,
4454,-0.0396729,0.0318115,
4456,0.0292969,0.0320374,
4458,-0.0366211,0.0318848,
4460,-0.0292969,0.0317505,
4462,0.020752,0.0317688,
4464,-0.0683594,0.0323059,
4466,0.0231934,0.0325134,
4468,0.00732422,0.0322327,
4470,-0.0299072,0.0322327,
4472,-0.0012207,0.0319946,
4474,-0.00305176,0.0319519,
4476,0.00183105,0.0318481,
4478,0.0610352,0.0318054,
4480,-0.0146484,0.0310303,
4482,0.00915527,0.0309387,
4484,-0.0360107,0.0309631,
4486,0.0109863,0.0308044,
4488,0.0317383,0.0310425,
4490,0.0170898,0.0309875,
4492,-0.0140381,0.0308838,
4494,-0.0811768,0.0314575,
4496,-0.0109863,0.0307495,
4498,0.0585938,0.0302917,
4500,-0.00549316,0.0300232,
4502,-0.0134277,0.0299011,
4504,0.00732422,0.0298035,
4506,-0.0109863,0.0296753,
4508,0.022583,0.0298279,
4510,0.00183105,0.0296753,
4512,0.0177002,0.0297058,
4514,-0.00915527,0.029071,
4516,0.0140381,0.0291443,
4518,0.0268555,0.0288513,
4520,0.0189209,0.0290039,
4522,-0.0158691,0.0288635,
4524,-0.0622559,0.02948,
4526,0.0708008,0.0295105,
4528,-0.012207,0.0295593,
4530,-0.0238037,0.0293396,
4532,-0.00854492,0.0288086,
4534,-0.0140381,0.0283142,
4536,-0.0158691,0.0282715,
4538,0.0262451,0.028302,
4540,-0.00488281,0.0277832,
4542,0.00610352,0.027356,
4544,-0.0598145,0.02771,
4546,0.0128174,0.0278076,
4548,-0.0457764,0.0282349,
4550,-0.0231934,0.0282104,
4552,0.0115967,0.0272949,
4554,-0.0427246,0.0267151,
4556,-0.0537109,0.0272156,
4558,0.0262451,0.0273254,
4560,-0.00244141,0.0273193,
4562,-0.012207,0.0273376,
4564,0.0189209,0.0274475,
4566,0.0323486,0.0277344,
4568,-0.0128174,0.0278137,
4570,0.0250244,0.0276611,
4572,0.0250244,0.0278076,
4574,-0.020752,0.0273071,
4576,-0.0604248,0.0279053,
4578,0.0598145,0.0283752,
4580,-0.0274658,0.0284851,
4582,-0.0427246,0.0280212,
4584,-0.0274658,0.0280273,
4586,0.00793457,0.0276672,
4588,-0.0305176,0.0279053,
4590,0.0262451,0.0278442,
4592,0.0280762,0.0280823,
4594,-0.0830078,0.0286011,
4596,0.012207,0.0285095,
4598,0.057373,0.0283691,
4600,-0.0366211,0.0284729,
4602,0,0.0280334,
4604,-0.00427246,0.0278748,
4606,0.0445557,0.0282837,
4608,-0.0109863,0.0279846,
4610,0.0183105,0.0275208,
4612,-0.00305176,0.0273926,
4614,0.0457764,0.0277405,
4616,0.0250244,0.0278625,
4618,-0.0354004,0.0281128,
4620,0.00488281,0.0277893,
4622,0.000610352,0.0277466,
4624,-0.0292969,0.0275635,
4626,-0.0250244,0.0268433,
4628,0.010376,0.0265137,
4630,-0.0482178,0.02677,
4632,0.0012207,0.0260498,
4634,-0.0335693,0.0259766,
4636,-0.0177002,0.0254761,
4638,-0.0482178,0.0254395,
4640,0.00427246,0.0251282,
4642,0.0158691,0.0252808,
4644,-0.0622559,0.0256165,
4646,0.00366211,0.0252014,
4648,0.0280762,0.0253174,
4650,0.00671387,0.0252991,
4652,-0.00305176,0.0250061,
4654,0.00549316,0.0246643,
4656,0.0244141,0.0246155,
4658,0.0012207,0.0242615,
4660,-0.00305176,0.023999,
4662,-0.020752,0.023999,
4664,-0.0323486,0.0236389,
4666,0.00305176,0.0234375,
4668,0.020752,0.0235718,
4670,0.012207,0.0233948,
4672,-0.0439453,0.023822,
4674,0.00915527,0.0238831,
4676,0.0427246,0.024292,
4678,-0.0213623,0.0238953,
4680,-0.0170898,0.0239197,
4682,-0.00671387,0.0238953,
4684,-0.0775146,0.0243103,
4686,-0.0268555,0.024469,
4688,0.00915527,0.0242432,
4690,-0.0598145,0.0246704,
4692,-0.0360107,0.0248901,
4694,-0.0201416,0.0242798,
4696,-0.0439453,0.0246094,
4698,0.101929,0.0250427,
4700,-0.00854492,0.0250732,
4702,-0.0183105,0.0251221,
4704,0.0012207,0.025061,
4706,0.0390625,0.0253418,
4708,-0.00671387,0.0251831,
4710,0.0128174,0.025293,
4712,-0.0231934,0.0253479,
4714,-0.0256348,0.0255127,
4716,-0.0152588,0.0255249,
4718,-0.0463867,0.0257202,
4720,-0.0396729,0.0259277,
4722,0.0292969,0.026062,
4724,-0.00976563,0.0255371,
4726,-0.0146484,0.0249756,
4728,-0.00183105,0.0248718,
4730,-0.000610352,0.0246399,
4732,0.0170898,0.0247253,
4734,0.0183105,0.0247681,
4736,-0.0238037,0.0248474,
4738,-0.0494385,0.0250793,
4740,-0.03479,0.0253784,
4742,0.0500488,0.0258179,
4744,-0.0244141,0.0254639,
4746,0.00854492,0.0254211,
4748,-0.0213623,0.025177,
4750,-0.0286865,0.0252319,
4752,0.0274658,0.0253906,
4754,0.0115967,0.0250793,
4756,0.000610352,0.0245483,
4758,-0.032959,0.0246155,
4760,-0.0323486,0.0249146,
4762,0.0531006,0.0253235,
4764,-0.0170898,0.0253052,
4766,-0.0262451,0.0252441,
4768,-0.0158691,0.0252747,
4770,0.00732422,0.0250977,
4772,0.0244141,0.0250916,
4774,-0.0292969,0.025177,
4776,-0.00183105,0.0245911,
4778,-0.0177002,0.0241699,
4780,-0.0134277,0.0240295,
4782,0.020752,0.0238098,
4784,0.00488281,0.023584,
4786,0.00366211,0.0235413,
4788,0.020752,0.0234436,
4790,-0.0189209,0.0233704,
4792,0.00244141,0.023114,
4794,0.0482178,0.0227661,
4796,-0.0170898,0.0228149,
4798,-0.0665283,0.0229065,
4800,0.0323486,0.0228638,
4802,0.00793457,0.0229431,
4804,-0.0146484,0.0230469,
4806,-0.00671387,0.0226685,
4808,-0.00976563,0.0226562,
4810,0.00549316,0.0225281,
4812,-0.00488281,0.0225464,
4814,-0.0189209,0.0222778,
4816,0.00183105,0.0220459,
4818,-0.00488281,0.0217407,
4820,0.00610352,0.0217529,
4822,0.0238037,0.0219849,
4824,-0.00671387,0.021759,
4826,-0.022583,0.0217346,
4828,0.043335,0.0220642,
4830,-0.00366211,0.0216187,
4832,-0.00305176,0.021637,
4834,-0.0390625,0.0216919,
4836,0.00976563,0.0216125,
4838,-0.000610352,0.0211365,
4840,-0.0396729,0.0214905,
4842,-0.022583,0.0215576,
4844,-0.00488281,0.0209839,
4846,-0.0012207,0.0209595,
4848,-0.0231934,0.0209106,
4850,-0.00427246,0.0208862,
4852,-0.00427246,0.0208984,
4854,0.000610352,0.0208496,
4856,0.00793457,0.0206848,
4858,-0.00305176,0.0207031,
4860,-0.0183105,0.0208557,
4862,0.0152588,0.0208008,
4864,0.0164795,0.0206421,
4866,0.00549316,0.0206665,
4868,0.00244141,0.0204834,
4870,-0.0238037,0.0205994,
4872,0.00305176,0.0201904,
4874,0.00976563,0.0201965,
4876,-0.0109863,0.0198792,
4878,0.00610352,0.0197266,
4880,-0.0164795,0.0197205,
4882,0.00671387,0.0197205,
4884,-0.0128174,0.0190735,
4886,-0.00427246,0.0188477,
4888,0.00976563,0.0188538,
4890,-0.00976563,0.0183533,
4892,0.00549316,0.0180481,
4894,-0.00671387,0.0179138,
4896,-0.0158691,0.0176331,
4898,0.0299072,0.0169128,
4900,-0.0372314,0.0171997,
4902,-0.0134277,0.0171509,
4904,0.022583,0.0173645,
4906,-0.020752,0.0171814,
4908,-0.0012207,0.0171265,
4910,-0.00854492,0.0170837,
4912,0.010376,0.0169556,
4914,-0.00549316,0.0167542,
4916,-0.012207,0.0167236,
4918,-0.00366211,0.0162964,
4920,-0.00183105,0.015918,
4922,-0.00671387,0.0156921,
4924,0.00671387,0.0156616,
4926,-0.0201416,0.0157166,
4928,-0.00305176,0.0157288,
4930,-0.0201416,0.0159241,
4932,0.0158691,0.0159119,
4934,-0.0189209,0.015918,
4936,0.000610352,0.015686,
4938,-0.0152588,0.0153442,
4940,-0.00427246,0.0150391,
4942,-0.0128174,0.0146667,
4944,-0.0183105,0.0146057,
4946,-0.0183105,0.0147034,
4948,-0.00610352,0.0145508,
4950,-0.00671387,0.0143311,
4952,-0.00549316,0.0141113,
4954,-0.0201416,0.0141968,
4956,0.0128174,0.0143188,
4958,0.00671387,0.0140564,
4960,-0.00549316,0.0137878,
4962,-0.0012207,0.013269,
4964,-0.00671387,0.0131653,
4966,-0.00488281,0.0129517,
4968,-0.0177002,0.01297,
4970,-0.00976563,0.0129944,
4972,-0.020752,0.0129578,
4974,-0.0146484,0.0128113,
4976,-0.0115967,0.0129089,
4978,-0.0305176,0.0130371,
4980,0.00244141,0.0129272,
4982,-0.010376,0.0128235,
4984,-0.0140381,0.012915,
4986,-0.00976563,0.0129761,
4988,0.0012207,0.0127808,
4990,0.00488281,0.0126404,
4992,-0.00427246,0.0126587,
4994,0,0.0121765,
4996,0.00183105,0.0120239,
4998,-0.00427246,0.0114014,
5000,0.000610352,0.011084,
5002,-0.00488281,0.0110535,
5004,-0.0177002,0.011084,
5006,-0.0109863,0.0111267,
5008,-0.00488281,0.0110779,
5010,-0.00305176,0.0110535,
5012,-0.0213623,0.0112183,
5014,-0.00610352,0.0110901,
5016,-0.00488281,0.0111206,
5018,-0.00854492,0.0111572,
5020,-0.0109863,0.0112061,
5022,-0.0128174,0.0110962,
5024,-0.00366211,0.0110657,
5026,-0.0152588,0.0109924,
5028,-0.0189209,0.0107483,
5030,-0.00244141,0.0107361,
5032,-0.00549316,0.0107605,
5034,-0.0164795,0.0105347,
5036,-0.0134277,0.0105713,
5038,-0.010376,0.0106689,
5040,-0.00793457,0.0103516,
5042,0.0012207,0.0101379,
5044,-0.00427246,0.0101318,
5046,-0.00488281,0.0101685,
5048,-0.00183105,0.00995483,
5050,-0.012207,0.0100342,
5052,-0.00488281,0.0100403,
5054,0.00976563,0.0101318,
5056,-0.00976563,0.0101501,
5058,-0.000610352,0.0101257,
5060,-0.00854492,0.0100281,
5062,-0.00366211,0.00991211,
5064,0.00183105,0.00976563,
5066,0,0.00971069,
5068,0.0012207,0.00969849,
5070,-0.00732422,0.00953369,
5072,0.0012207,0.00951538,
5074,0.000610352,0.00942383,
5076,-0.00854492,0.00939941,
5078,-0.00549316,0.00939331,
5080,-0.00610352,0.00928955,
5082,-0.0231934,0.00945435,
5084,-0.0115967,0.00944214,
5086,-0.0396729,0.00979614,
5088,0.0170898,0.00986938,
5090,-0.00244141,0.00979614,
5092,-0.0341797,0.010083,
5094,-0.0268555,0.0102844,
5096,-0.00671387,0.0101929,
5098,0.00183105,0.00991211,
5100,0.0341797,0.00988159,
5102,-0.0231934,0.00997925,
5104,-0.0201416,0.00995483,
5106,-0.00183105,0.00976563,
5108,0.0384521,0.0101379,
5110,-0.00305176,0.010083,
5112,-0.0134277,0.0101135,
5114,0.00854492,0.010144,
5116,-0.00366211,0.0100586,
5118,-0.00305176,0.0100525,
5120,-0.0146484,0.0101807,
5122,-0.012207,0.0102356,
5124,-0.00610352,0.0102295,
5126,-0.0189209,0.0102173,
5128,-0.0238037,0.0104248,
5130,0.0012207,0.0102356,
5132,0.00183105,0.0100952,
5134,-0.0256348,0.0101624,
5136,-0.0183105,0.0103394,
5138,0.0164795,0.0103516,
5140,-0.00488281,0.0103577,
5142,-0.00671387,0.0102966,
5144,-0.00915527,0.0102051,
5146,-0.00427246,0.0100647,
5148,-0.00427246,0.0100464,
5150,-0.00793457,0.0100586,
5152,-0.0140381,0.010144,
5154,0.00793457,0.010022,
5156,-0.000610352,0.0098999,
5158,-0.022583,0.0100586,
5160,-0.0115967,0.0101196,
5162,0.00488281,0.0101563,
5164,-0.00671387,0.0101563,
5166,-0.000610352,0.0101135,
5168,-0.010376,0.0100403,
5170,-0.00671387,0.0100098,
5172,0.00305176,0.00983276,
5174,-0.00488281,0.00973511,
5176,-0.0152588,0.00977173,
5178,-0.00549316,0.00952148,
5180,-0.00793457,0.00957642,
5182,-0.00854492,0.00955811,
5184,-0.00732422,0.00949097,
5186,-0.0152588,0.0095459,
5188,-0.0109863,0.00964355,
5190,-0.0140381,0.00973511,
5192,-0.00488281,0.00974121,
5194,-0.00671387,0.00980835,
5196,-0.00549316,0.00984497,
5198,-0.00610352,0.00986328,
5200,-0.0115967,0.00997314,
5202,0.00305176,0.00995483,
5204,-0.00183105,0.00979614,
5206,0.000610352,0.00969238,
5208,-0.00854492,0.009729,
5210,-0.00183105,0.0097168,
5212,0.00671387,0.00957031,
5214,-0.00549316,0.00956421,
5216,-0.0146484,0.00966187,
5218,0,0.00957642,
5220,-0.00610352,0.00952759,
5222,-0.0201416,0.00960083,
5224,0,0.00956421,
5226,-0.00732422,0.00948486,
5228,-0.0183105,0.00947876,
5230,0.00610352,0.00951538,
5232,-0.00854492,0.0095459,
5234,-0.00427246,0.00942383,
5236,0.0109863,0.00939941,
5238,-0.0128174,0.00942383,
5240,0.00793457,0.00942383,
5242,-0.000610352,0.00941772,
5244,-0.00305176,0.00940552,
5246,-0.00793457,0.00943604,
5248,0.00732422,0.00949097,
5250,-0.0109863,0.00947876,
5252,0.00305176,0.00946045,
5254,0.00427246,0.00940552,
5256,-0.00671387,0.009375,
5258,-0.0128174,0.00949707,
5260,-0.00305176,0.00944214,
5262,-0.00549316,0.00946045,
5264,-0.00244141,0.00946655,
5266,-0.00366211,0.00950317,
5268,-0.0115967,0.00960693,
5270,-0.0128174,0.00966187,
5272,0.000610352,0.00965576,
5274,0.00732422,0.0097229,
5276,-0.0134277,0.00977173,
5278,-0.00793457,0.00979614,
5280,-0.00183105,0.00975342,
5282,0.000610352,0.00952759,
5284,-0.00183105,0.00942993,
5286,0,0.0090332,
5288,-0.00427246,0.00890503,
5290,-0.00610352,0.00894165,
5292,-0.00183105,0.00861816,
5294,-0.0012207,0.00836182,
5296,-0.00427246,0.0083374,
5298,-0.0012207,0.0083313,
5300,0,0.0079895,
5302,0.000610352,0.00776367,
5304,-0.00549316,0.00761719,
5306,0.00183105,0.00761719,
5308,-0.00854492,0.00731812,
5310,0,0.0072876,
5312,-0.00732422,0.00722656,
5314,0.00488281,0.00718994,
5316,-0.0152588,0.00730591,
5318,0.00793457,0.00735474,
5320,-0.00305176,0.00723877,
5322,-0.0012207,0.00712891,
5324,0,0.00706787,
5326,-0.000610352,0.00688477,
5328,-0.00488281,0.00669556,
5330,-0.0109863,0.00679321,
5332,0.00183105,0.00679321,
5334,-0.0128174,0.00666504,
5336,-0.0109863,0.0065918,
5338,0.00366211,0.00646362,
5340,-0.010376,0.00651855,
5342,-0.0146484,0.0065979,
5344,0.000610352,0.00651245,
5346,-0.00732422,0.00654297,
5348,0.0189209,0.00668945,
5350,-0.020752,0.00681763,
5352,-0.00549316,0.00673218,
5354,-0.010376,0.00675659,
5356,0.00366211,0.00678711,
5358,-0.0012207,0.00657349,
5360,-0.00915527,0.00654907,
5362,-0.00793457,0.00657959,
5364,-0.00366211,0.00654907,
5366,-0.00793457,0.00662231,
5368,-0.00976563,0.00661621,
5370,0.00732422,0.00662231,
5372,-0.00854492,0.00667725,
5374,-0.00854492,0.00671387,
5376,-0.00488281,0.00661011,
5378,-0.0201416,0.00675659,
5380,-0.00427246,0.00671997,
5382,0.00671387,0.00670166,
5384,-0.022583,0.00685425,
5386,-0.0115967,0.00681763,
5388,0.0012207,0.00671997,
5390,-0.0134277,0.00671387,
5392,-0.00244141,0.00668945,
5394,-0.00427246,0.00666504,
5396,0.00549316,0.00666504,
5398,0.00366211,0.00664063,
5400,-0.0152588,0.00667725,
5402,0.00183105,0.00666504,
5404,-0.00854492,0.00673218,
5406,-0.00610352,0.00678711,
5408,0.00427246,0.00674438,
5410,-0.00915527,0.00681763,
5412,-0.0183105,0.00693359,
5414,-0.000610352,0.00688477,
5416,-0.00671387,0.00680542,
5418,-0.00671387,0.00687256,
5420,-0.00427246,0.00685425,
5422,0.00610352,0.00671387,
5424,-0.012207,0.00683594,
5426,-0.00427246,0.00680542,
5428,0.00671387,0.00668945,
5430,-0.0012207,0.00664063,
5432,0.00427246,0.0065979,
5434,0.00427246,0.0065979,
5436,-0.0128174,0.00661621,
5438,0.00244141,0.00651245,
5440,-0.00427246,0.00647583,
5442,-0.00549316,0.00652466,
5444,-0.00427246,0.00653687,
5446,-0.00854492,0.00654297,
5448,-0.010376,0.00657349,
5450,-0.00488281,0.00651245,
5452,0.00732422,0.00655518,
5454,-0.00732422,0.00658569,
5456,-0.00854492,0.006604,
5458,0.00854492,0.00656128,
5460,0.00244141,0.00655518,
5462,-0.000610352,0.00650635,
5464,-0.000610352,0.00648804,
5466,-0.00366211,0.00648804,
5468,-0.0012207,0.00638428,
5470,0.00488281,0.00630493,
5472,0.00183105,0.00631714,
5474,0.0012207,0.0062561,
5476,-0.00976563,0.00621948,
5478,-0.00366211,0.00617676,
5480,0.00549316,0.00621338,
5482,0.00244141,0.00623169,
5484,-0.00915527,0.00630493,
5486,-0.00488281,0.00635376,
5488,-0.00854492,0.00639648,
5490,0.00366211,0.00637207,
5492,-0.000610352,0.00635986,
5494,-0.00732422,0.0064209,
5496,-0.0012207,0.00639038,
5498,-0.000610352,0.00638428,
5500,-0.00549316,0.00643921,
5502,0.00305176,0.00646362,
5504,-0.010376,0.00651245,
5506,0.00183105,0.00651245,
5508,-0.00793457,0.00650635,
5510,0,0.00650635,
5512,-0.0177002,0.00661011,
5514,0.000610352,0.00656738,
5516,-0.00305176,0.00644531,
5518,-0.00366211,0.00640259,
5520,-0.012207,0.00649414,
5522,0.00610352,0.00654297,
5524,-0.010376,0.00664673,
5526,-0.00488281,0.00668945,
5528,-0.000610352,0.00664673,
5530,-0.00976563,0.00663452,
5532,-0.00488281,0.00666504,
5534,-0.00305176,0.00656738,
5536,-0.00915527,0.00654907,
5538,-0.00610352,0.00657349,
5540,-0.00671387,0.00653687,
5542,-0.0012207,0.00640259,
5544,-0.00976563,0.00649414,
5546,-0.0140381,0.00656128,
5548,-0.00366211,0.00640869,
5550,-0.010376,0.00630493,
5552,-0.00549316,0.00630493,
5554,-0.00366211,0.00623779,
5556,-0.00854492,0.00628662,
5558,-0.000610352,0.00628052,
5560,0,0.00618896,
5562,-0.00854492,0.00619507,
5564,-0.00427246,0.00620117,
5566,-0.00488281,0.00617065,
5568,-0.00427246,0.00611572,
5570,-0.00610352,0.00610352,
5572,-0.00427246,0.00606079,
5574,-0.00488281,0.00602417,
5576,-0.00671387,0.00604248,
5578,-0.00610352,0.0059021,
5580,-0.00183105,0.00587769,
5582,-0.00732422,0.00588379,
5584,-0.00976563,0.00575562,
5586,0.0012207,0.00565186,
5588,0.00732422,0.00571289,
5590,-0.0201416,0.00578003,
5592,-0.00793457,0.00583496,
5594,0.00854492,0.00587769,
5596,-0.0134277,0.00595703,
5598,-0.010376,0.00602417,
5600,-0.00488281,0.00592041,
5602,-0.00854492,0.00598755,
5604,-0.00671387,0.00596924,
5606,-0.00915527,0.00599976,
5608,-0.010376,0.00606079,
5610,-0.00671387,0.00603638,
5612,-0.0012207,0.00586548,
5614,-0.00976563,0.00595703,
5616,-0.00793457,0.00596924,
5618,-0.00488281,0.00595093,
5620,-0.012207,0.00603027,
5622,-0.00488281,0.00601807,
5624,-0.0115967,0.00601196,
5626,-0.00244141,0.00599365,
5628,-0.010376,0.00603027,
5630,-0.00244141,0.00604248,
5632,-0.00427246,0.00604248,
5634,-0.00793457,0.0060791,
5636,-0.00976563,0.00604858,
5638,-0.00427246,0.00606689,
5640,-0.00366211,0.00606079,
5642,0.00793457,0.00608521,
5644,-0.022583,0.00626831,
5646,-0.00671387,0.00625,
5648,0.00610352,0.00620728,
5650,-0.00793457,0.00623779,
5652,-0.00976563,0.00626221,
5654,-0.00854492,0.00627441,
5656,0.00366211,0.00622559,
5658,-0.00976563,0.00623779,
5660,-0.0183105,0.00639648,
5662,0.0012207,0.00640259,
5664,-0.00244141,0.0064209,
5666,-0.0012207,0.00639648,
5668,-0.010376,0.00648804,
5670,-0.0177002,0.00661621,
5672,0.0109863,0.00670776,
5674,-0.00671387,0.0067627,
5676,-0.00305176,0.00669556,
5678,-0.000610352,0.00666504,
5680,-0.00610352,0.00667114,
5682,-0.00183105,0.00666504,
5684,0.00244141,0.0065979,
5686,0.000610352,0.00655518,
5688,-0.00915527,0.00656128,
5690,-0.00366211,0.00656128,
5692,-0.00976563,0.00665283,
5694,0.00976563,0.00667725,
5696,-0.0134277,0.00679932,
5698,-0.0170898,0.00696411,
5700,0.00732422,0.00698242,
5702,-0.00976563,0.00704956,
5704,-0.0189209,0.00713501,
5706,-0.0012207,0.00712891,
5708,0,0.00704956,
5710,-0.00915527,0.00714111,
5712,-0.00976563,0.00706177,
5714,0.00427246,0.00709839,
5716,-0.00488281,0.0071167,
5718,-0.0012207,0.00709229,
5720,-0.00305176,0.00700073,
5722,0.00244141,0.00696411,
5724,-0.00488281,0.00690918,
5726,0.00244141,0.00688477,
5728,0.00427246,0.00692139,
5730,-0.00854492,0.00690918,
5732,-0.00244141,0.00688477,
5734,0.00732422,0.00692749,
5736,-0.00793457,0.00691528,
5738,-0.0134277,0.00698853,
5740,-0.00915527,0.00701294,
5742,0.00549316,0.00705566,
5744,-0.00915527,0.00704956,
5746,-0.00427246,0.0069519,
5748,-0.0177002,0.00709229,
5750,0.00427246,0.00703125,
5752,0.00183105,0.00699463,
5754,0.00183105,0.00697632,
5756,0.000610352,0.00689697,
5758,-0.00183105,0.00690918,
5760,-0.00305176,0.0069397,
5762,-0.00488281,0.00690308,
5764,0.0012207,0.00687256,
5766,-0.00854492,0.00690918,
5768,-0.00549316,0.00692139,
5770,-0.00854492,0.0069458,
5772,-0.00427246,0.0069458,
5774,0,0.00689697,
5776,-0.0134277,0.00696411,
5778,-0.00793457,0.00698242,
5780,0.00244141,0.00698853,
5782,-0.00488281,0.00696411,
5784,-0.00610352,0.00692749,
5786,-0.00854492,0.00700073,
5788,0.0012207,0.0069397,
5790,-0.00488281,0.00678711,
5792,-0.00793457,0.00678711,
5794,-0.00793457,0.00678101,
5796,-0.00427246,0.00668945,
5798,-0.00793457,0.00666504,
5800,-0.0109863,0.00672607,
5802,-0.010376,0.00674438,
5804,-0.00976563,0.0067749,
5806,-0.00732422,0.00675659,
5808,-0.00549316,0.00670776,
5810,-0.00671387,0.00670776,
5812,-0.00915527,0.00678711,
5814,-0.00732422,0.0067627,
5816,-0.00244141,0.00670776,
5818,-0.0128174,0.00678711,
5820,-0.00915527,0.00675659,
5822,-0.0128174,0.00683594,
5824,-0.0109863,0.00682983,
5826,-0.00183105,0.00682373,
5828,-0.0146484,0.00686646,
5830,-0.0170898,0.00701294,
5832,-0.00244141,0.00699463,
5834,-0.0109863,0.00702515,
5836,-0.010376,0.00703125,
5838,-0.010376,0.00709229,
5840,-0.0115967,0.00717163,
5842,-0.012207,0.00721436,
5844,-0.0164795,0.00715332,
5846,-0.00610352,0.00714722,
5848,-0.00488281,0.00713501,
5850,-0.0183105,0.00723877,
5852,0,0.00714111,
5854,0.00244141,0.00708008,
5856,-0.0128174,0.00717163,
5858,0.00427246,0.0071167,
5860,-0.00488281,0.00698242,
5862,-0.00610352,0.00703125,
5864,-0.00366211,0.00704346,
5866,-0.00427246,0.00707397,
5868,-0.00244141,0.00699463,
5870,-0.00732422,0.00689087,
5872,-0.00793457,0.00686035,
5874,-0.00427246,0.00683594,
5876,-0.00427246,0.00684814,
5878,-0.00427246,0.00688477,
5880,-0.00244141,0.00684814,
5882,-0.00427246,0.00687256,
5884,-0.00793457,0.00692749,
5886,-0.00671387,0.00698853,
5888,-0.00244141,0.00692139,
5890,-0.010376,0.00698853,
5892,0.00305176,0.00692139,
5894,-0.0213623,0.00703735,
5896,-0.00183105,0.00692139,
5898,-0.00610352,0.00681152,
5900,-0.0115967,0.00685425,
5902,-0.00366211,0.00679321,
5904,0.00488281,0.00665283,
5906,0.00976563,0.00673828,
5908,-0.0189209,0.00692749,
5910,0.00671387,0.00690308,
5912,-0.0012207,0.00681763,
5914,-0.00610352,0.00683594,
5916,-0.00305176,0.00681763,
5918,-0.0128174,0.00693359,
5920,-0.00671387,0.00697021,
5922,0,0.0069458,
5924,-0.0274658,0.00717163,
5926,0,0.00714722,
5928,0.00793457,0.00718384,
5930,-0.0109863,0.00720825,
5932,-0.00183105,0.00720215,
5934,-0.00732422,0.00720215,
5936,0.00366211,0.00715942,
5938,0.0012207,0.00703735,
5940,-0.00549316,0.00700073,
5942,-0.00366211,0.00698242,
5944,-0.00854492,0.00697632,
5946,-0.00305176,0.00696411,
5948,-0.00244141,0.00681152,
5950,0.00793457,0.00684814,
5952,-0.00549316,0.00688477,
5954,-0.0115967,0.00698242,
5956,-0.00610352,0.00703735,
5958,0.00549316,0.00707397,
5960,-0.00854492,0.00712891,
5962,-0.0170898,0.00725098,
5964,-0.0109863,0.00734863,
5966,0.00976563,0.00736084,
5968,-0.00610352,0.00736694,
5970,-0.0115967,0.00739746,
5972,-0.00976563,0.00745239,
5974,-0.00183105,0.0074707,
5976,0.00549316,0.00739136,
5978,-0.00366211,0.00734863,
5980,-0.00976563,0.00742187,
5982,-0.00183105,0.00739136,
5984,-0.00610352,0.00739136,
5986,-0.00610352,0.00736694,
5988,-0.00183105,0.00737305,
5990,-0.00976563,0.00742187,
5992,0.00915527,0.00743408,
5994,-0.012207,0.00747681,
5996,0.00549316,0.00748901,
5998,-0.0115967,0.00752563,
6000,-0.00305176,0.00744629,
6002,-0.010376,0.00744629,
6004,-0.00427246,0.00739136,
6006,0.00549316,0.00737305,
6008,-0.0152588,0.0074707,
6010,-0.0189209,0.00759277,
6012,0.00488281,0.00755005,
6014,-0.00366211,0.00751343,
6016,-0.00305176,0.00751953,
6018,-0.00244141,0.00741577,
6020,-0.00366211,0.00736084,
6022,-0.0012207,0.00724487,
6024,-0.00793457,0.00721436,
6026,-0.00793457,0.00727539,
6028,-0.000610352,0.00713501,
6030,-0.00549316,0.00701904,
6032,-0.00854492,0.00708008,
6034,-0.00305176,0.00700073,
6036,-0.010376,0.00700073,
6038,0.00488281,0.0069458,
6040,-0.0158691,0.00698853,
6042,-0.00427246,0.00690918,
6044,-0.0164795,0.00690918,
6046,-0.00976563,0.0069458,
6048,-0.00915527,0.00698853,
6050,-0.0201416,0.00700684,
6052,-0.00549316,0.00706177,
6054,-0.00244141,0.00706177,
6056,-0.00305176,0.00696411,
6058,-0.010376,0.00702515,
6060,0,0.00697632,
6062,-0.00427246,0.00695801,
6064,-0.00305176,0.0069519,
6066,0.00183105,0.00692749,
6068,-0.00610352,0.00696411,
6070,-0.00915527,0.00698242,
6072,-0.00915527,0.00699463,
6074,0.00183105,0.00697021,
6076,-0.0115967,0.00704346,
6078,0.0146484,0.00714722,
6080,-0.00366211,0.00715942,
6082,-0.00549316,0.00717163,
6084,-0.000610352,0.00709839,
6086,0.00793457,0.0071106,
6088,-0.00183105,0.00710449,
6090,-0.0195313,0.00719604,
6092,-0.00671387,0.00723267,
6094,-0.00610352,0.00708008,
6096,-0.00793457,0.00714111,
6098,-0.0115967,0.00719604,
6100,-0.00488281,0.00712891,
6102,-0.00732422,0.00716553,
6104,-0.00732422,0.00718994,
6106,0.0012207,0.00710449,
6108,-0.00366211,0.0069519,
6110,0.00183105,0.00690308,
6112,-0.00610352,0.0069519,
6114,-0.00671387,0.00695801,
6116,-0.00610352,0.00698853,
6118,0.00183105,0.00687866,
6120,-0.00244141,0.00683594,
6122,-0.00610352,0.00689697,
6124,-0.00549316,0.00667725,
6126,-0.00732422,0.00675049,
6128,0.000610352,0.00667725,
6130,0.000610352,0.00657349,
6132,-0.00427246,0.0065979,
6134,-0.000610352,0.00653076,
6136,0.00610352,0.00655518,
6138,0.012207,0.00666504,
6140,-0.010376,0.00671387,
6142,-0.00549316,0.00673218,
6144,0.00244141,0.00667114,
6146,0,0.00664063,
6148,-0.00976563,0.00671387,
6150,-0.0109863,0.00674438,
6152,-0.00793457,0.0067688,
6154,-0.0189209,0.00684204,
6156,-0.00671387,0.00684814,
6158,0.00793457,0.00687256,
6160,-0.0292969,0.00708008,
6162,0.0109863,0.00701904,
6164,0.000610352,0.00691528,
6166,-0.0231934,0.00704956,
6168,-0.00183105,0.00700684,
6170,-0.0012207,0.00690308,
6172,-0.00915527,0.00689697,
6174,-0.00732422,0.0069519,
6176,-0.00732422,0.00697021,
6178,-0.00610352,0.00699463,
6180,0.00488281,0.0069458,
6182,-0.0115967,0.00704346,
6184,-0.00244141,0.00700684,
6186,-0.00244141,0.00697021,
6188,-0.00244141,0.00697632,
6190,-0.00183105,0.00689697,
6192,0.00183105,0.00682373,
6194,-0.012207,0.00682373,
6196,-0.000610352,0.0067749,
6198,-0.00366211,0.00669556,
6200,0.00244141,0.00668945,
6202,0.00183105,0.006604,
6204,-0.00976563,0.00665894,
6206,0.00549316,0.00665894,
6208,-0.00244141,0.00653076,
6210,-0.00305176,0.00637207,
6212,-0.00427246,0.00636597,
6214,0.000610352,0.00633545,
6216,-0.00610352,0.00636597,
6218,0.000610352,0.00634766,
6220,-0.00427246,0.00635376,
6222,-0.00549316,0.00639648,
6224,-0.00793457,0.00639648,
6226,-0.00732422,0.00639038,
6228,0.000610352,0.00639038,
6230,-0.00610352,0.00639648,
6232,0.000610352,0.00631714,
6234,-0.00976563,0.00638428,
6236,-0.0115967,0.00639648,
6238,0.00610352,0.00640869,
6240,-0.010376,0.00635376,
6242,0.00854492,0.00639648,
6244,-0.0195313,0.006427,
6246,-0.00427246,0.00637207,
6248,-0.00366211,0.00631714,
6250,-0.00244141,0.00614014,
6252,-0.00610352,0.00614624,
6254,-0.00427246,0.00616455,
6256,-0.00244141,0.00615845,
6258,-0.00915527,0.00614624,
6260,0.00244141,0.00617065,
6262,-0.0140381,0.00626831,
6264,-0.00793457,0.00631714,
6266,0.00305176,0.00632935,
6268,-0.00244141,0.00629272,
6270,-0.0140381,0.00634155,
6272,0.0012207,0.00626221,
6274,-0.0140381,0.00638428,
6276,-0.00854492,0.00635376,
6278,-0.00549316,0.00626221,
6280,-0.00671387,0.00629272,
6282,0.000610352,0.0062439,
6284,-0.0219727,0.00645752,
6286,-0.00427246,0.0064209,
6288,-0.00732422,0.00647583,
6290,-0.00976563,0.00637817,
6292,-0.00793457,0.00639038,
6294,-0.00610352,0.00639038,
6296,-0.00732422,0.00638428,
6298,-0.00549316,0.00632324,
6300,-0.00915527,0.00636597,
6302,-0.0109863,0.00640259,
6304,0.00244141,0.00635376,
6306,-0.00732422,0.00641479,
6308,-0.0170898,0.00654907,
6310,-0.00244141,0.00655518,
6312,-0.0012207,0.00650635,
6314,-0.00976563,0.00653687,
6316,-0.00854492,0.00656128,
6318,-0.00427246,0.00658569,
6320,-0.00854492,0.00664673,
6322,-0.00793457,0.00666504,
6324,0.000610352,0.00661621,
6326,-0.00305176,0.00657349,
6328,-0.010376,0.00667114,
6330,0.000610352,0.00667114,
6332,-0.00244141,0.00665283,
6334,-0.00427246,0.00668945,
6336,0,0.00662842,
6338,-0.0146484,0.00665283,
6340,0,0.00654907,
6342,0.00732422,0.00656738,
6344,-0.00976563,0.00664063,
6346,-0.00366211,0.00667725,
6348,-0.00427246,0.00662231,
6350,-0.00793457,0.0065918,
6352,-0.0012207,0.00652466,
6354,0.00488281,0.00638428,
6356,-0.0134277,0.00645142,
6358,-0.00366211,0.00640869,
6360,-0.00610352,0.00617676,
6362,-0.00427246,0.00610962,
6364,-0.00610352,0.00616455,
6366,-0.00976563,0.00603027,
6368,-0.00610352,0.006073,
6370,0,0.00606079,
6372,-0.00854492,0.00605469,
6374,-0.00854492,0.00606689,
6376,-0.010376,0.00609741,
6378,-0.0134277,0.00617065,
6380,0.00976563,0.00621948,
6382,-0.0152588,0.0062561,
6384,-0.0195313,0.006427,
6386,-0.00671387,0.00646973,
6388,0.00244141,0.00646973,
6390,-0.0115967,0.00656738,
6392,0.00244141,0.00657349,
6394,-0.00549316,0.00650635,
6396,-0.00854492,0.00658569,
6398,-0.00427246,0.0065918,
6400,-0.00671387,0.00663452,
6402,-0.00183105,0.00663452,
6404,-0.00610352,0.0065979,
6406,-0.00976563,0.00664063,
6408,-0.00610352,0.00667725,
6410,-0.00854492,0.00673218,
6412,-0.00488281,0.00673828,
6414,-0.00671387,0.00679932,
6416,-0.00183105,0.00675659,
6418,-0.00610352,0.00681152,
6420,-0.010376,0.00687256,
6422,-0.00244141,0.00684204,
6424,-0.00305176,0.00679321,
6426,-0.0140381,0.00686035,
6428,-0.0213623,0.00706787,
6430,0,0.00700684,
6432,0.00183105,0.00701904,
6434,-0.00976563,0.00701904,
6436,-0.0109863,0.00701294,
6438,-0.00305176,0.00698242,
6440,-0.00244141,0.00690308,
6442,-0.000610352,0.00682373,
6444,-0.00610352,0.00668945,
6446,-0.00488281,0.00669556,
6448,0.0012207,0.00667114,
6450,-0.012207,0.0067688,
6452,-0.00244141,0.00673218,
6454,0.00549316,0.00674438,
6456,-0.0195313,0.00691528,
6458,-0.0012207,0.00683594,
6460,0.00244141,0.00683594,
6462,-0.00671387,0.0067627,
6464,-0.00549316,0.00673828,
6466,0.00427246,0.00675049,
6468,-0.010376,0.00682983,
6470,-0.00488281,0.00673828,
6472,0,0.00672607,
6474,0.000610352,0.0065918,
6476,0.00427246,0.00654907,
6478,0.00488281,0.00654297,
6480,-0.00793457,0.00655518,
6482,-0.00976563,0.00664673,
6484,-0.0012207,0.00643921,
6486,0.00549316,0.00645142,
6488,-0.00244141,0.00640259,
6490,-0.0134277,0.00643921,
6492,-0.00488281,0.00640869,
6494,-0.00854492,0.00643311,
6496,-0.00488281,0.00640869,
6498,-0.00244141,0.00637817,
6500,0.00671387,0.00635376,
6502,-0.010376,0.00634766,
6504,-0.0109863,0.00643311,
6506,0.00366211,0.00639648,
6508,-0.00366211,0.00626221,
6510,-0.00305176,0.00626831,
6512,-0.010376,0.00635986,
6514,-0.00549316,0.00631714,
6516,-0.00488281,0.00628052,
6518,-0.00854492,0.00632324,
6520,-0.00915527,0.00632935,
6522,-0.00793457,0.00632935,
6524,-0.00183105,0.00634155,
6526,-0.00488281,0.00635986,
6528,-0.0115967,0.00637207,
6530,-0.00366211,0.00640259,
6532,-0.0012207,0.00639038,
6534,-0.00427246,0.00639038,
6536,-0.00610352,0.00645142,
6538,0.00610352,0.00636597,
6540,-0.00915527,0.00645752,
6542,-0.00305176,0.00641479,
6544,0.0012207,0.00632935,
6546,-0.00183105,0.00631104,
6548,-0.00793457,0.00634766,
6550,0.00427246,0.00631104,
6552,-0.000610352,0.00630493,
6554,0,0.0062561,
6556,-0.00671387,0.00618896,
6558,-0.0140381,0.00629272,
6560,0.00244141,0.0062561,
6562,0.00915527,0.00630493,
6564,-0.0170898,0.00641479,
6566,0.000610352,0.00632324,
6568,0.00183105,0.00628052,
6570,-0.0012207,0.00629272,
6572,-0.00732422,0.00628052,
6574,0.000610352,0.00620117,
6576,0.00305176,0.00612793,
6578,0.000610352,0.00599976,
6580,-0.012207,0.00602417,
6582,-0.00915527,0.00596313,
6584,-0.00976563,0.00586548,
6586,0.00671387,0.00586548,
6588,0.000610352,0.00584717,
6590,0.0183105,0.00591431,
6592,-0.0201416,0.00609131,
6594,0.00488281,0.00608521,
6596,0.010376,0.00610352,
6598,0.00305176,0.00609131,
6600,-0.0170898,0.00619507,
6602,-0.00915527,0.00626831,
6604,0,0.00620728,
6606,-0.0183105,0.00629272,
6608,-0.0115967,0.00634766,
6610,-0.00671387,0.00632935,
6612,-0.00854492,0.00636597,
6614,-0.00854492,0.00638428,
6616,0.00732422,0.00643921,
6618,0,0.00637817,
6620,-0.00793457,0.00635376,
6622,-0.010376,0.00643311,
6624,-0.00549316,0.00645752,
6626,0.000610352,0.00632324,
6628,-0.00915527,0.00620117,
6630,-0.0213623,0.00641479,
6632,-0.00183105,0.00641479,
6634,-0.012207,0.00643921,
6636,-0.00610352,0.00639038,
6638,-0.00549316,0.00641479,
6640,-0.0109863,0.00650024,
6642,0.0183105,0.00667725,
6644,-0.0109863,0.00672607,
6646,-0.0494385,0.00717163,
6648,0.0512695,0.00767212,
6650,-0.00244141,0.00757446,
6652,-0.0262451,0.0078125,
6654,-0.0115967,0.00787354,
6656,-0.00915527,0.00776978,
6658,0.00183105,0.00777588,
6660,-0.0115967,0.00786743,
6662,-0.00854492,0.00788574,
6664,-0.000610352,0.00783691,
6666,-0.00244141,0.0078186,
6668,-0.0012207,0.00772705,
6670,-0.0109863,0.00778809,
6672,-0.00305176,0.0078186,
6674,-0.00305176,0.00784302,
6676,0.022583,0.00802612,
6678,-0.0201416,0.00817871,
6680,-0.00305176,0.00812988,
6682,0.00854492,0.00811768,
6684,-0.010376,0.00820923,
6686,-0.000610352,0.0081604,
6688,-0.00183105,0.0081543,
6690,-0.00732422,0.00809326,
6692,0.000610352,0.00805054,
6694,-0.00488281,0.00801392,
6696,-0.00549316,0.00802002,
6698,-0.00732422,0.00806885,
6700,-0.000610352,0.00800781,
6702,-0.00854492,0.0079895,
6704,-0.00915527,0.00797119,
6706,-0.00488281,0.0079834,
6708,0.00244141,0.00797119,
6710,-0.0115967,0.00805664,
6712,-0.0128174,0.00808105,
6714,-0.012207,0.00814819,
6716,-0.00488281,0.00814819,
6718,-0.00610352,0.00812378,
6720,-0.00854492,0.00811768,
6722,-0.00976563,0.00813599,
6724,-0.0109863,0.00822754,
6726,-0.0115967,0.00829468,
6728,0.0012207,0.00819092,
6730,-0.0128174,0.00828247,
6732,-0.00305176,0.00830078,
6734,-0.00244141,0.00828247,
6736,-0.0164795,0.00838623,
6738,-0.00671387,0.00839233,
6740,-0.00427246,0.00834351,
6742,-0.0012207,0.0083252,
6744,-0.00793457,0.00839233,
6746,-0.00366211,0.00841064,
6748,-0.012207,0.00845337,
6750,-0.00305176,0.00844116,
6752,0.00610352,0.00849609,
6754,-0.00549316,0.00855103,
6756,-0.010376,0.00858765,
6758,0.00366211,0.00848389,
6760,-0.00793457,0.00853882,
6762,0.00305176,0.00847778,
6764,-0.00854492,0.00839233,
6766,-0.00366211,0.00842285,
6768,-0.00488281,0.00845337,
6770,0.010376,0.00854492,
6772,-0.010376,0.00857544,
6774,-0.00427246,0.00861206,
6776,-0.00244141,0.00860596,
6778,-0.00366211,0.00863647,
6780,0.00305176,0.00854492,
6782,-0.00366211,0.00848999,
6784,-0.00488281,0.00844116,
6786,0.00610352,0.00843506,
6788,-0.0109863,0.00853882,
6790,-0.0146484,0.0085022,
6792,0.0164795,0.00846558,
6794,-0.00305176,0.00844727,
6796,-0.00854492,0.00842896,
6798,-0.00671387,0.00846558,
6800,-0.00915527,0.00838623,
6802,-0.00793457,0.00837402,
6804,0.00915527,0.00846558,
6806,-0.00671387,0.00834961,
6808,-0.0140381,0.00837402,
6810,0.00427246,0.00834961,
6812,-0.00671387,0.0083313,
6814,-0.00305176,0.00827637,
6816,0,0.00820313,
6818,0,0.00820313,
6820,-0.00793457,0.00820313,
6822,-0.00732422,0.00817261,
6824,-0.00488281,0.0081665,
6826,-0.0012207,0.00817261,
6828,0.00305176,0.00811157,
6830,-0.0115967,0.00801392,
6832,0.000610352,0.00800171,
6834,-0.0140381,0.00802002,
6836,0.0012207,0.00797119,
6838,-0.00854492,0.00800171,
6840,0.000610352,0.00789795,
6842,-0.0140381,0.00785522,
6844,-0.00915527,0.00783691,
6846,-0.00854492,0.00742798,
6848,-0.00427246,0.00695801,
6850,-0.00183105,0.0069519,
6852,-0.0140381,0.00682983,
6854,-0.00427246,0.00675659,
6856,-0.0115967,0.00678101,
6858,-0.00915527,0.00685425,
6860,-0.00488281,0.00678711,
6862,-0.00488281,0.00675049,
6864,-0.012207,0.00686646,
6866,-0.00915527,0.00693359,
6868,-0.00366211,0.00695801,
6870,0,0.00684814,
6872,0,0.00681763,
6874,-0.00610352,0.00684814,
6876,-0.00305176,0.00665283,
6878,0.00183105,0.00646973,
6880,-0.00244141,0.00646362,
6882,-0.00305176,0.00640869,
6884,-0.010376,0.00640869,
6886,-0.00305176,0.00643311,
6888,0.00976563,0.00651245,
6890,-0.0115967,0.00655518,
6892,-0.00610352,0.00661011,
6894,-0.0109863,0.00667114,
6896,0.0115967,0.00673218,
6898,-0.00793457,0.00673828,
6900,-0.00854492,0.00681763,
6902,-0.00976563,0.00682983,
6904,0,0.00673828,
6906,0.000610352,0.00669556,
6908,-0.00427246,0.00671387,
6910,-0.00732422,0.00667114,
6912,-0.00976563,0.00664063,
6914,0.00671387,0.00658569,
6916,-0.00671387,0.006604,
6918,-0.00549316,0.0065979,
6920,-0.00427246,0.00655518,
6922,-0.020752,0.00666504,
6924,0.000610352,0.00656128,
6926,-0.00854492,0.00653076,
6928,0.00183105,0.00653687,
6930,-0.0323486,0.00673218,
6932,0.00488281,0.00675049,
6934,-0.012207,0.00684814,
6936,0.00793457,0.0067627,
6938,-0.00671387,0.0067627,
6940,-0.0152588,0.00687256,
6942,0.00183105,0.00687866,
6944,-0.00854492,0.00688477,
6946,0.0115967,0.00696411,
6948,-0.0238037,0.00708008,
6950,-0.0158691,0.00720825,
6952,0.00549316,0.00720215,
6954,-0.0158691,0.00730591,
6956,-0.0201416,0.00740356,
6958,-0.00549316,0.00742187,
6960,-0.00671387,0.00740967,
6962,0.00488281,0.00742798,
6964,-0.0140381,0.00748291,
6966,-0.00976563,0.00754395,
6968,0.00610352,0.00755615,
6970,0.00671387,0.00751953,
6972,-0.00610352,0.00747681,
6974,-0.00976563,0.00753174,
6976,-0.00976563,0.00760498,
6978,-0.000610352,0.00757446,
6980,-0.0152588,0.00769653,
6982,0.0109863,0.00776978,
6984,-0.0170898,0.00789185,
6986,0.00610352,0.00789185,
6988,-0.00610352,0.00784302,
6990,-0.00732422,0.00776978,
6992,-0.00366211,0.0076416,
6994,0.00549316,0.00766602,
6996,-0.0152588,0.00773315,
6998,0.00732422,0.00773926,
7000,-0.0158691,0.0078064,
7002,-0.00244141,0.00775146,
7004,-0.00732422,0.00773315,
7006,0.00732422,0.00773926,
7008,-0.0158691,0.00775757,
7010,0.00366211,0.00775146,
7012,-0.00183105,0.00770264,
7014,-0.0158691,0.00783081,
7016,-0.00366211,0.00786743,
7018,-0.0012207,0.00787964,
7020,-0.00427246,0.00784302,
7022,-0.00732422,0.00784302,
7024,-0.0109863,0.00790405,
7026,-0.00183105,0.00791016,
7028,-0.00610352,0.00794067,
7030,-0.00305176,0.00785522,
7032,-0.000610352,0.00785522,
7034,-0.012207,0.00783691,
7036,-0.00488281,0.00787354,
7038,0.0115967,0.00790405,
7040,-0.00549316,0.00795288,
7042,-0.00976563,0.00791016,
7044,0.00305176,0.00784912,
7046,0.00427246,0.0078064,
7048,-0.00549316,0.0078186,
7050,-0.00183105,0.0078186,
7052,0.0012207,0.00769043,
7054,-0.00366211,0.00768433,
7056,-0.00915527,0.00765991,
7058,-0.00244141,0.00759277,
7060,0.0012207,0.00755615,
7062,-0.00793457,0.00758667,
7064,-0.0109863,0.00757446,
7066,0.00671387,0.00755005,
7068,0.00366211,0.00755005,
7070,-0.0134277,0.00768433,
7072,0.00244141,0.00770874,
7074,0.0115967,0.00776367,
7076,-0.012207,0.00785522,
7078,0,0.00783691,
7080,0.012207,0.00793457,
7082,-0.0134277,0.00803833,
7084,0.00183105,0.00795288,
7086,0.00488281,0.00797119,
7088,-0.00915527,0.00796509,
7090,-0.0109863,0.00795898,
7092,0.00244141,0.00792236,
7094,-0.0128174,0.00794067,
7096,-0.010376,0.00792847,
7098,0.00244141,0.00787354,
7100,-0.0115967,0.00790405,
7102,-0.00854492,0.00789185,
7104,-0.00671387,0.00795898,
7106,0.00976563,0.00805054,
7108,-0.012207,0.00812988,
7110,-0.000610352,0.00806274,
7112,0,0.00796509,
7114,-0.00915527,0.0079895,
7116,-0.00366211,0.00795898,
7118,-0.012207,0.00802612,
7120,-0.00488281,0.00803223,
7122,-0.00915527,0.00791626,
7124,-0.00854492,0.00799561,
7126,-0.0140381,0.00805054,
7128,-0.00915527,0.00812378,
7130,-0.012207,0.00792236,
7132,-0.00732422,0.00794678,
7134,-0.00488281,0.00787354,
7136,-0.00549316,0.00784912,
7138,-0.00305176,0.0078125,
7140,-0.00793457,0.00773926,
7142,-0.00732422,0.00779419,
7144,-0.00610352,0.00776978,
7146,0.000610352,0.00765991,
7148,-0.00671387,0.00748901,
7150,-0.00976563,0.00742798,
7152,-0.0183105,0.00755615,
7154,-0.00854492,0.00748291,
7156,-0.00915527,0.00737305,
7158,-0.00366211,0.00735474,
7160,-0.0115967,0.00740356,
7162,-0.0213623,0.00756836,
7164,0.00183105,0.00744629,
7166,-0.0158691,0.00750732,
7168,-0.00488281,0.00749512,
7170,-0.0134277,0.00756226,
7172,-0.00427246,0.00754395,
7174,-0.00183105,0.0074646,
7176,0.000610352,0.00737305,
7178,-0.0164795,0.00753174,
7180,-0.00915527,0.0074707,
7182,0.0012207,0.00737305,
7184,-0.010376,0.00730591,
7186,-0.00915527,0.00733643,
7188,0.00244141,0.0072998,
7190,-0.00732422,0.0072998,
7192,-0.00244141,0.0072876,
7194,-0.0219727,0.00745239,
7196,0.012207,0.00742187,
7198,-0.0134277,0.00748291,
7200,-0.00610352,0.00738525,
7202,-0.00305176,0.00739136,
7204,-0.00793457,0.00739746,
7206,-0.0152588,0.00747681,
7208,-0.00976563,0.00741577,
7210,-0.000610352,0.00738525,
7212,-0.0109863,0.00747681,
7214,0.0012207,0.00733032,
7216,0.00244141,0.00731812,
7218,-0.0177002,0.00748291,
7220,-0.00183105,0.0074585,
7222,-0.00488281,0.00743408,
7224,-0.00610352,0.00738525,
7226,-0.00305176,0.00739746,
7228,-0.00427246,0.00737915,
7230,-0.0170898,0.00751953,
7232,0.000610352,0.00751953,
7234,-0.00366211,0.00743408,
7236,-0.00305176,0.00741577,
7238,0.0012207,0.00731201,
7240,-0.00549316,0.00731201,
7242,-0.00915527,0.00730591,
7244,-0.00732422,0.00734863,
7246,-0.00366211,0.00734253,
7248,-0.0012207,0.0072998,
7250,0.00244141,0.00730591,
7252,-0.0170898,0.0074646,
7254,-0.00549316,0.00748291,
7256,-0.0109863,0.00750122,
7258,-0.00976563,0.00757446,
7260,0.00183105,0.00758057,
7262,-0.0189209,0.00769043,
7264,-0.00915527,0.00767212,
7266,0.00488281,0.00765381,
7268,-0.0140381,0.00775757,
7270,-0.00305176,0.00765381,
7272,-0.00854492,0.00771484,
7274,-0.0012207,0.00761108,
7276,-0.00854492,0.00757446,
7278,-0.00915527,0.00766602,
7280,-0.00488281,0.00759277,
7282,-0.0109863,0.00756836,
7284,-0.00793457,0.00762939,
7286,-0.0152588,0.00773315,
7288,0.00183105,0.00765991,
7290,0.012207,0.00767212,
7292,-0.0250244,0.00789795,
7294,-0.00366211,0.0078064,
7296,0.00915527,0.00779419,
7298,-0.00610352,0.00783081,
7300,-0.010376,0.0078186,
7302,-0.00244141,0.00775757,
7304,-0.0115967,0.0078064,
7306,-0.0128174,0.00783691,
7308,-0.00549316,0.00776978,
7310,-0.00183105,0.00778198,
7312,0.00488281,0.00783081,
7314,-0.0146484,0.00788574,
7316,-0.00488281,0.00789795,
7318,-0.00244141,0.00780029,
7320,0,0.00775146,
7322,0.00366211,0.00769653,
7324,0.000610352,0.00761719,
7326,-0.00976563,0.00757446,
7328,0.000610352,0.00748901,
7330,-0.00976563,0.0074646,
7332,0.00915527,0.00748291,
7334,-0.00976563,0.00753174,
7336,-0.00854492,0.00756226,
7338,-0.00854492,0.00761719,
7340,-0.00549316,0.00759277,
7342,-0.010376,0.00762329,
7344,-0.00488281,0.00761108,
7346,-0.00976563,0.00770264,
7348,-0.00610352,0.00769653,
7350,-0.0012207,0.00761108,
7352,-0.00854492,0.00751343,
7354,-0.0115967,0.00754395,
7356,0.00671387,0.00751953,
7358,-0.00793457,0.00756226,
7360,-0.00915527,0.00753784,
7362,-0.00183105,0.00734253,
7364,-0.012207,0.00744629,
7366,0.0012207,0.0072998,
7368,-0.00854492,0.00733643,
7370,-0.00671387,0.00726929,
7372,-0.0140381,0.00736694,
7374,0.010376,0.00745239,
7376,-0.00488281,0.00749512,
7378,-0.012207,0.00745239,
7380,-0.00305176,0.00739136,
7382,0.0012207,0.00739136,
7384,-0.00183105,0.00730591,
7386,-0.0164795,0.00737915,
7388,0.0115967,0.0074707,
7390,0,0.00739746,
7392,-0.0140381,0.00751343,
7394,0.0012207,0.00730591,
7396,-0.00366211,0.00722046,
7398,-0.00183105,0.00710449,
7400,-0.00305176,0.00707397,
7402,0,0.00704346,
7404,-0.0012207,0.00697632,
7406,-0.00793457,0.00690308,
7408,-0.00183105,0.00682373,
7410,-0.00671387,0.00688477,
7412,0.00732422,0.00684814,
7414,0.00732422,0.00690918,
7416,-0.0140381,0.00702515,
7418,-0.00793457,0.00692749,
7420,-0.00366211,0.0069458,
7422,0.00366211,0.00693359,
7424,-0.0128174,0.00700073,
7426,0.00305176,0.00700073,
7428,-0.00549316,0.00701294,
7430,-0.0195313,0.00703735,
7432,-0.0012207,0.00704346,
7434,-0.0152588,0.00715942,
7436,0.00427246,0.00717163,
7438,-0.0012207,0.00717163,
7440,-0.0109863,0.00722656,
7442,-0.00610352,0.00719604,
7444,-0.0140381,0.00726318,
7446,0.00671387,0.0072937,
7448,-0.00854492,0.00736694,
7450,-0.0115967,0.0074585,
7452,-0.00854492,0.00737305,
7454,0.00366211,0.00735474,
7456,-0.0128174,0.00737305,
7458,-0.0012207,0.0072876,
7460,0.00244141,0.0072937,
7462,-0.0012207,0.0071167,
7464,-0.0158691,0.00718384,
7466,-0.00427246,0.00717773,
7468,0.00671387,0.00710449,
7470,-0.00244141,0.00709839,
7472,-0.0140381,0.00715332,
7474,-0.00732422,0.00721436,
7476,-0.00183105,0.00714722,
7478,-0.00305176,0.00708618,
7480,-0.00732422,0.0071106,
7482,-0.0134277,0.00713501,
7484,0,0.00705566,
7486,-0.00976563,0.00700073,
7488,-0.00732422,0.00705566,
7490,-0.00488281,0.00698242,
7492,-0.00488281,0.00678101,
7494,-0.00854492,0.00682983,
7496,-0.00610352,0.00679932,
7498,0.00305176,0.0067688,
7500,-0.00610352,0.00672607,
7502,-0.00732422,0.0067749,
7504,-0.012207,0.00678101,
7506,-0.00793457,0.00673218,
7508,-0.00671387,0.00674438,
7510,0.00488281,0.0067749,
7512,-0.0231934,0.00695801,
7514,-0.00915527,0.00690308,
7516,0.00305176,0.00688477,
7518,-0.00427246,0.00690308,
7520,-0.012207,0.00702515,
7522,-0.00183105,0.00700684,
7524,-0.00305176,0.00703125,
7526,-0.00549316,0.00698853,
7528,-0.020752,0.00718994,
7530,0,0.00709229,
7532,-0.00549316,0.00705566,
7534,-0.0128174,0.00708618,
7536,-0.010376,0.00710449,
7538,-0.010376,0.0071228,
7540,-0.00305176,0.00709839,
7542,-0.0134277,0.00712891,
7544,-0.00915527,0.00717163,
7546,0,0.00707397,
7548,-0.00793457,0.00709229,
7550,-0.00305176,0.0071106,
7552,-0.0134277,0.00715942,
7554,-0.000610352,0.00704956,
7556,-0.0128174,0.0071106,
7558,-0.00671387,0.00709839,
7560,-0.0158691,0.00716553,
7562,-0.00610352,0.00720825,
7564,-0.0109863,0.00719604,
7566,-0.00549316,0.00723877,
7568,-0.00183105,0.00717163,
7570,-0.00915527,0.00719604,
7572,-0.0134277,0.00718994,
7574,0.00793457,0.00716553,
7576,-0.00305176,0.00714722,
7578,-0.0109863,0.00713501,
7580,-0.0292969,0.00739746,
7582,0.0213623,0.00759888,
7584,0.00732422,0.00765381,
7586,-0.0268555,0.00775757,
7588,-0.0109863,0.00775146,
7590,0.00244141,0.00777588,
7592,-0.00671387,0.00770264,
7594,0.00183105,0.00770874,
7596,-0.00488281,0.00772095,
7598,-0.00549316,0.00775757,
7600,-0.012207,0.00784912,
7602,-0.00183105,0.00786743,
7604,0.00366211,0.00789185,
7606,-0.0183105,0.00799561,
7608,0.00244141,0.00800171,
7610,-0.00854492,0.00802002,
7612,-0.0158691,0.00810547,
7614,-0.0189209,0.00822144,
7616,0,0.00808105,
7618,-0.0128174,0.00812988,
7620,0.00488281,0.00814209,
7622,-0.00915527,0.00819702,
7624,-0.0152588,0.00822144,
7626,0.00488281,0.00823975,
7628,-0.00244141,0.00820923,
7630,-0.00305176,0.00804443,
7632,0.00305176,0.00806274,
7634,-0.00610352,0.00797119,
7636,-0.0128174,0.00805664,
7638,-0.00366211,0.00808105,
7640,-0.00854492,0.00805664,
7642,-0.00244141,0.00802002,
7644,-0.00305176,0.00791016,
7646,-0.00732422,0.00791626,
7648,-0.020752,0.00803833,
7650,0.00732422,0.00799561,
7652,-0.00427246,0.00795288,
7654,-0.00305176,0.00794678,
7656,-0.00427246,0.00786133,
7658,0,0.00784912,
7660,0.00488281,0.00787354,
7662,-0.0195313,0.00805664,
7664,0.00183105,0.00791626,
7666,-0.00427246,0.00791626,
7668,-0.0109863,0.00795898,
7670,-0.00244141,0.00795898,
7672,-0.00976563,0.00791626,
7674,-0.0109863,0.00795288,
7676,-0.00732422,0.00800781,
7678,-0.00732422,0.00805054,
7680,-0.00488281,0.00802612,
7682,-0.00915527,0.0079834,
7684,-0.00183105,0.00800171,
7686,-0.0109863,0.00801392,
7688,-0.00732422,0.00801392,
7690,-0.00732422,0.00803833,
7692,-0.010376,0.00809326,
7694,-0.00854492,0.00809326,
7696,-0.00610352,0.00809326,
7698,-0.00244141,0.00808716,
7700,-0.00915527,0.00811768,
7702,-0.00976563,0.00814209,
7704,-0.0012207,0.00803223,
7706,-0.00366211,0.0079895,
7708,-0.00244141,0.00794678,
7710,-0.0262451,0.0081604,
7712,0.00427246,0.00797119,
7714,-0.0152588,0.00803223,
7716,-0.0183105,0.00818481,
7718,-0.00427246,0.00818481,
7720,-0.0128174,0.00819092,
7722,-0.00976563,0.00827026,
7724,0.00366211,0.00827637,
7726,-0.00549316,0.00827637,
7728,-0.0012207,0.00808105,
7730,-0.010376,0.00818481,
7732,0.00915527,0.00822144,
7734,-0.00183105,0.00811157,
7736,-0.0164795,0.00817261,
7738,-0.00549316,0.00812378,
7740,-0.00549316,0.00814819,
7742,-0.00732422,0.00808716,
7744,-0.00793457,0.00807495,
7746,0.00793457,0.0081543,
7748,-0.0158691,0.00823364,
7750,-0.000610352,0.00820923,
7752,-0.00427246,0.00811768,
7754,0.00305176,0.00814209,
7756,-0.00793457,0.00809326,
7758,0.00366211,0.00806274,
7760,-0.00305176,0.00793457,
7762,-0.00732422,0.00794678,
7764,-0.0134277,0.00797119,
7766,0.000610352,0.00792236,
7768,-0.0109863,0.00801392,
7770,0.00366211,0.00795898,
7772,-0.0170898,0.00799561,
7774,0.00427246,0.00795898,
7776,-0.012207,0.00805054,
7778,-0.00976563,0.00803833,
7780,-0.00183105,0.00776367,
7782,0.00366211,0.00758667,
7784,-0.00305176,0.00754395,
7786,-0.0128174,0.00740356,
7788,0.00671387,0.00736084,
7790,-0.0109863,0.00744629,
7792,-0.0109863,0.00748901,
7794,0.0012207,0.00748291,
7796,0.00244141,0.0074585,
7798,-0.00732422,0.00747681,
7800,-0.000610352,0.00736084,
7802,-0.00244141,0.00736694,
7804,-0.00610352,0.00739136,
7806,-0.00305176,0.00723877,
7808,-0.0012207,0.00722656,
7810,-0.00305176,0.00717163,
7812,-0.00549316,0.00706787,
7814,-0.00732422,0.0069519,
7816,-0.00488281,0.00700073,
7818,-0.00488281,0.00692139,
7820,-0.00427246,0.00691528,
7822,-0.00183105,0.00684204,
7824,-0.00610352,0.00675049,
7826,-0.00366211,0.00673828,
7828,0.00183105,0.00673218,
7830,-0.00244141,0.00672607,
7832,-0.00183105,0.00671387,
7834,0.00244141,0.00667725,
7836,-0.00732422,0.00662231,
7838,-0.00793457,0.00666504,
7840,0.00183105,0.0065979,
7842,-0.0164795,0.00673828,
7844,-0.010376,0.00681152,
7846,0.000610352,0.00674438,
7848,-0.0109863,0.00664673,
7850,-0.0238037,0.00681152,
7852,0.00488281,0.00681763,
7854,-0.00549316,0.00684204,
7856,-0.0177002,0.00697632,
7858,0.00244141,0.00700073,
7860,0.00793457,0.00703125,
7862,-0.0268555,0.00710449,
7864,-0.0164795,0.00725098,
7866,0.0262451,0.0074707,
7868,-0.0189209,0.00755005,
7870,-0.00976563,0.00762329,
7872,-0.00305176,0.00755615,
7874,-0.0170898,0.00761719,
7876,0.00915527,0.0076355,
7878,0.00915527,0.00765381,
7880,-0.0201416,0.0078064,
7882,-0.0012207,0.00772705,
7884,0.00793457,0.00778809,
7886,-0.00244141,0.00770264,
7888,-0.00183105,0.00764771,
7890,-0.00549316,0.00762939,
7892,-0.0115967,0.0076416,
7894,0.00183105,0.00757446,
7896,-0.00793457,0.00759277,
7898,0.00305176,0.00759888,
7900,-0.0115967,0.00762329,
7902,-0.00793457,0.00760498,
7904,0.00244141,0.00761719,
7906,-0.00305176,0.00761108,
7908,-0.00671387,0.00765381,
7910,-0.00671387,0.0074585,
7912,-0.00732422,0.00748901,
7914,-0.00793457,0.00741577,
7916,-0.00366211,0.00726929,
7918,-0.00305176,0.00725708,
7920,-0.010376,0.00723267,
7922,-0.00549316,0.00718994,
7924,-0.00305176,0.00718384,
7926,0.00183105,0.00714722,
7928,-0.00671387,0.00720215,
7930,-0.00671387,0.00716553,
7932,-0.00488281,0.0071228,
7934,-0.00610352,0.00716553,
7936,-0.00549316,0.00705566,
7938,-0.00976563,0.00709839,
7940,-0.00671387,0.0071106,
7942,-0.00549316,0.00709229,
7944,-0.00244141,0.00703735,
7946,-0.0231934,0.00718994,
7948,0.00915527,0.0071228,
7950,-0.0128174,0.00724487,
7952,-0.00915527,0.0072937,
7954,0.010376,0.00736694,
7956,-0.00854492,0.00737305,
7958,-0.00366211,0.00737305,
7960,0.0012207,0.00735474,
7962,-0.00549316,0.00733643,
7964,-0.00732422,0.00727539,
7966,-0.00305176,0.0072998,
7968,-0.000610352,0.00719604,
7970,-0.00671387,0.00722656,
7972,-0.0170898,0.00722656,
7974,-0.012207,0.00730591,
7976,0.00915527,0.00727539,
7978,-0.0201416,0.00737915,
7980,-0.00976563,0.0074585,
7982,0.00549316,0.00747681,
7984,0.000610352,0.00745239,
7986,-0.0146484,0.0074707,
7988,-0.00305176,0.00743408,
7990,0.00854492,0.00740967,
7992,-0.00854492,0.00738525,
7994,-0.00671387,0.00744019,
7996,-0.00976563,0.00751343,
7998,-0.00732422,0.00751343,
8000,-0.00671387,0.00757446,
8002,-0.00854492,0.0076355,
8004,-0.00549316,0.00762939,
8006,-0.012207,0.00772095,
8008,-0.00976563,0.0078064,
8010,-0.000610352,0.00778198,
8012,-0.00915527,0.0078186,
8014,0.00183105,0.00776367,
8016,-0.0170898,0.00788574,
8018,-0.00732422,0.00791016,
8020,-0.00183105,0.00788574,
8022,-0.00732422,0.00794067,
8024,-0.00915527,0.00797119,
8026,-0.0134277,0.00806885,
8028,-0.00427246,0.00809326,
8030,-0.0109863,0.00817871,
8032,0.00549316,0.00821533,
8034,-0.0140381,0.0083313,
8036,-0.00610352,0.00831909,
8038,0.00610352,0.00830078,
8040,-0.00671387,0.00834961,
8042,-0.00549316,0.00823975,
8044,-0.00671387,0.00820313,
8046,0.00366211,0.00823364,
8048,-0.00488281,0.00817261,
8050,0.00488281,0.0079834,
8052,-0.0115967,0.00805054,
8054,-0.000610352,0.00800171,
8056,0.00793457,0.00790405,
8058,-0.0195313,0.00807495,
8060,-0.00671387,0.00806274,
8062,-0.00610352,0.00785522,
8064,-0.0012207,0.00770264,
8066,-0.0115967,0.00755615,
8068,-0.0170898,0.00753784,
8070,-0.00427246,0.00748291,
8072,-0.0012207,0.0074646,
8074,-0.00976563,0.00739136,
8076,-0.012207,0.00742187,
8078,0.00183105,0.00734863,
8080,-0.0109863,0.00725708,
8082,-0.00610352,0.00730591,
8084,-0.0115967,0.00734253,
8086,-0.00183105,0.00733643,
8088,-0.00793457,0.00739746,
8090,0,0.00734253,
8092,-0.0134277,0.00736084,
8094,-0.00305176,0.00737305,
8096,-0.00793457,0.00737305,
8098,0,0.00734253,
8100,-0.00854492,0.00731201,
8102,-0.00671387,0.0072998,
8104,-0.0109863,0.00738525,
8106,0.00366211,0.00739136,
8108,-0.00610352,0.00738525,
8110,-0.00488281,0.00736694,
8112,-0.00366211,0.00733032,
8114,0.0012207,0.00726318,
8116,-0.00305176,0.00725708,
8118,-0.00732422,0.0072998,
8120,0.00610352,0.00725708,
8122,-0.0134277,0.00733643,
8124,-0.00915527,0.00739746,
8126,-0.0012207,0.00739136,
8128,-0.00244141,0.00734863,
8130,-0.00976563,0.00737915,
8132,-0.00854492,0.00741577,
8134,-0.00183105,0.00737305,
8136,-0.00549316,0.00737305,
8138,-0.00549316,0.00733032,
8140,-0.00549316,0.00731812,
8142,-0.0170898,0.00743408,
8144,0.00366211,0.00744629,
8146,-0.0012207,0.00722656,
8148,0.0170898,0.00730591,
8150,-0.022583,0.00740356,
8152,0.00915527,0.00740356,
8154,0.0201416,0.00750122,
8156,-0.00793457,0.00749512,
8158,-0.00244141,0.00748291,
8160,0.00183105,0.00748901,
8162,0.000610352,0.00744019,
8164,-0.0158691,0.00752563,
8166,0.000610352,0.00750122,
8168,-0.020752,0.00770264,
8170,0.00366211,0.00767212,
8172,0.0134277,0.0076355,
8174,-0.0164795,0.00767822,
8176,-0.000610352,0.00759277,
8178,0.00671387,0.0074585,
8180,0.00671387,0.00742798,
8182,0.0012207,0.00738525,
8184,-0.00427246,0.00742187,
8186,-0.0115967,0.00739136,
8188,0.00183105,0.00737915,
8190,-0.00854492,0.00737915,
8192,-0.010376,0.00739746,
8194,-0.0140381,0.0074707,
8196,0.00366211,0.00740967,
8198,-0.00366211,0.00737305,
8200,-0.0146484,0.00745239,
8202,-0.00793457,0.00744629,
8204,-0.00854492,0.00747681,
8206,-0.0012207,0.00736694,
8208,0.00366211,0.00730591,
8210,-0.0140381,0.00744019,
8212,-0.00854492,0.00743408,
8214,-0.00366211,0.00745239,
8216,-0.0115967,0.00739746,
8218,0.0128174,0.00745239,
8220,-0.0012207,0.00744629,
8222,-0.0164795,0.00753784,
8224,-0.00244141,0.0074707,
8226,-0.00366211,0.00737305,
8228,-0.00183105,0.00734863,
8230,-0.00427246,0.00728149,
8232,-0.00732422,0.0072998,
8234,0,0.00715942,
8236,-0.00915527,0.00718994,
8238,-0.00549316,0.00718384,
8240,-0.00488281,0.00716553,
8242,-0.00915527,0.00720215,
8244,-0.00732422,0.00720825,
8246,-0.00183105,0.00718994,
8248,-0.00427246,0.00718384,
8250,-0.0170898,0.00730591,
8252,-0.012207,0.00731201,
8254,-0.00732422,0.00737915,
8256,0.00427246,0.00734253,
8258,-0.00915527,0.00723877,
8260,-0.00854492,0.00725708,
8262,-0.00488281,0.00724487,
8264,0.00488281,0.00728149,
8266,-0.0115967,0.00728149,
8268,0.00732422,0.00718384,
8270,0.00671387,0.00720825,
8272,-0.00915527,0.0072876,
8274,-0.00427246,0.00723267,
8276,0.00244141,0.00713501,
8278,0.000610352,0.0071228,
8280,0.00488281,0.00706177,
8282,-0.00854492,0.00708618,
8284,-0.0170898,0.00714111,
8286,0.0183105,0.00730591,
8288,-0.0158691,0.00738525,
8290,0.00427246,0.00742798,
8292,0.00244141,0.00731812,
8294,0.00488281,0.00733643,
8296,-0.00183105,0.00727539,
8298,-0.00244141,0.0072998,
8300,0.00244141,0.00723877,
8302,-0.0012207,0.00718384,
8304,-0.00976563,0.00717163,
8306,0.00549316,0.00718994,
8308,-0.00793457,0.00720825,
8310,-0.00793457,0.00723877,
8312,-0.00793457,0.00728149,
8314,-0.0115967,0.00738525,
8316,0.00427246,0.00739746,
8318,-0.00793457,0.00740356,
8320,-0.0158691,0.00750122,
8322,-0.000610352,0.00737305,
8324,-0.00915527,0.00737305,
8326,-0.00854492,0.00744629,
8328,-0.00732422,0.00749512,
8330,-0.00671387,0.0074646,
8332,-0.00610352,0.00744019,
8334,-0.00854492,0.00750732,
8336,-0.00488281,0.00750122,
8338,-0.00366211,0.00748291,
8340,-0.00915527,0.00751953,
8342,0.00183105,0.00736694,
8344,-0.00183105,0.00734863,
8346,-0.00915527,0.00742798,
8348,-0.00732422,0.00733032,
8350,-0.00366211,0.00714111,
8352,0.0134277,0.00718384,
8354,-0.00488281,0.00703125,
8356,-0.0152588,0.00710449,
8358,-0.0201416,0.00728149,
8360,0.00793457,0.00734253,
