Dani_C_1-L01
Gráfico creado el:2026-06-03 17:19:44.062
Registro en:2026-06-03 17:20:42.286
2 mseg/muestras
2 canales
EMG
mV
EMG Integrado
mV-sec
milliSec,CH1,CH40,
,89590 samples,89590 samples,
0,-0.010376,0.00010376,
2,0.00244141,0.000128174,
4,0.0012207,0.000140381,
6,0.0158691,0.000299072,
8,-0.00488281,0.0003479,
10,-0.0189209,0.000537109,
12,-0.00793457,0.000616455,
14,0.00305176,0.000646973,
16,0,0.000646973,
18,-0.0262451,0.000909424,
20,-0.020752,0.00111694,
22,-0.00610352,0.00117798,
24,-0.00732422,0.00125122,
26,0.00488281,0.00130005,
28,-0.00610352,0.00136108,
30,-0.00549316,0.00141602,
32,0.00427246,0.00145874,
34,-0.00976563,0.0015564,
36,-0.00244141,0.00158081,
38,-0.00305176,0.00161133,
40,-0.00305176,0.00164185,
42,0.00366211,0.00167847,
44,-0.00366211,0.00171509,
46,-0.0115967,0.00183105,
48,-0.00305176,0.00186157,
50,-0.00305176,0.00189209,
52,-0.00671387,0.00195923,
54,0.00366211,0.00199585,
56,-0.0170898,0.00216675,
58,-0.00610352,0.00222778,
60,0.00244141,0.0022522,
62,-0.00366211,0.00228882,
64,-0.00732422,0.00236206,
66,0.00427246,0.00240479,
68,0.00305176,0.0024353,
70,-0.0146484,0.00258179,
72,-0.00366211,0.00261841,
74,-0.00793457,0.00269775,
76,-0.0109863,0.00280762,
78,-0.0146484,0.0029541,
80,0.000610352,0.00296021,
82,0.000610352,0.00296631,
84,-0.00183105,0.00298462,
86,0.00610352,0.00304565,
88,0.00244141,0.00307007,
90,0.00366211,0.00310669,
92,0.0280762,0.00338745,
94,-0.00732422,0.00346069,
96,-0.010376,0.00356445,
98,-0.00610352,0.00362549,
100,-0.0128174,0.00375366,
102,0.00183105,0.00377197,
104,-0.020752,0.00397949,
106,-0.0158691,0.00413818,
108,-0.010376,0.00424194,
110,-0.00976563,0.0043396,
112,-0.00305176,0.00437012,
114,0.00549316,0.00442505,
116,-0.0146484,0.00457153,
118,-0.00305176,0.00460205,
120,-0.00976563,0.00469971,
122,-0.00244141,0.00472412,
124,-0.00427246,0.00476685,
126,-0.00793457,0.00484619,
128,-0.0146484,0.00499268,
130,-0.00671387,0.00505981,
132,-0.00793457,0.00513916,
134,-0.00854492,0.00522461,
136,0.00183105,0.00524292,
138,-0.0152588,0.00539551,
140,-0.00854492,0.00548096,
142,-0.00488281,0.00552979,
144,-0.0134277,0.00566406,
146,-0.00488281,0.00571289,
148,-0.000610352,0.00571899,
150,0.00488281,0.00576782,
152,0.0115967,0.00588379,
154,-0.00305176,0.00591431,
156,-0.0140381,0.00605469,
158,0.00305176,0.00608521,
160,0.00793457,0.00616455,
162,-0.00427246,0.00620728,
164,-0.0128174,0.00633545,
166,-0.0128174,0.00646362,
168,-0.0128174,0.0065918,
170,-0.00610352,0.00665283,
172,0.00183105,0.00667114,
174,0.00183105,0.00668945,
176,0.0012207,0.00670166,
178,0,0.00670166,
180,-0.00366211,0.00673828,
182,0.00366211,0.0067749,
184,-0.0134277,0.00690918,
186,-0.00793457,0.00698853,
188,0.00976563,0.00708618,
190,-0.0012207,0.00709839,
192,-0.00610352,0.00715942,
194,-0.00915527,0.00725098,
196,-0.000610352,0.00725708,
198,-0.0170898,0.00742798,
200,-0.000610352,0.00733032,
202,-0.00183105,0.00732422,
204,-0.00793457,0.00739136,
206,-0.0201416,0.00743408,
208,-0.0146484,0.00753174,
210,-0.010376,0.00744629,
212,-0.00671387,0.00743408,
214,-0.00183105,0.00742187,
216,-0.00305176,0.00745239,
218,-0.00732422,0.00726318,
220,0.00366211,0.00709229,
222,-0.00305176,0.00706177,
224,-0.00671387,0.00705566,
226,0.0115967,0.0071228,
228,0.0012207,0.00707397,
230,-0.0170898,0.00718994,
232,0,0.00714722,
234,-0.00244141,0.00707397,
236,-0.00244141,0.00707397,
238,-0.00915527,0.00713501,
240,-0.00976563,0.00720215,
242,-0.00488281,0.00721436,
244,-0.0109863,0.0072876,
246,-0.00244141,0.00719604,
248,-0.00244141,0.00718994,
250,-0.00671387,0.00722656,
252,0.00793457,0.00723877,
254,-0.00366211,0.00723877,
256,-0.0012207,0.00708008,
258,0.0109863,0.00712891,
260,-0.000610352,0.0071106,
262,-0.0115967,0.00718994,
264,0.010376,0.00722046,
266,-0.00366211,0.00721436,
268,-0.0201416,0.00738525,
270,-0.00976563,0.00733643,
272,-0.00488281,0.00734863,
274,-0.0177002,0.00744629,
276,-0.0146484,0.00748291,
278,-0.0128174,0.0074646,
280,-0.00915527,0.00755005,
282,0,0.00754395,
284,-0.00854492,0.00761108,
286,-0.012207,0.00767212,
288,0.0109863,0.00775757,
290,0.00305176,0.00775146,
292,-0.010376,0.00757446,
294,-0.00488281,0.00755005,
296,0.00854492,0.00753174,
298,0.0128174,0.00759888,
300,-0.00976563,0.00756836,
302,-0.0152588,0.00770264,
304,-0.0012207,0.00750732,
306,-0.00183105,0.00736694,
308,0.00244141,0.0072876,
310,-0.00793457,0.00726929,
312,-0.00976563,0.00733643,
314,-0.00854492,0.00736694,
316,0.00244141,0.00724487,
318,-0.00427246,0.00725708,
320,-0.00732422,0.00723267,
322,0.00671387,0.00727539,
324,-0.00915527,0.00732422,
326,0,0.00724487,
328,0.0012207,0.0071106,
330,-0.0128174,0.00717163,
332,0.00549316,0.00714722,
334,-0.00427246,0.00710449,
336,-0.00488281,0.00713501,
338,-0.00915527,0.00707397,
340,-0.00854492,0.00707397,
342,-0.00366211,0.00706177,
344,-0.00793457,0.00700684,
346,-0.0109863,0.00706787,
348,-0.00854492,0.00714722,
350,0.00305176,0.00712891,
352,-0.010376,0.0071167,
354,-0.0177002,0.00726318,
356,-0.000610352,0.00712891,
358,0.00549316,0.00715332,
360,-0.012207,0.00719604,
362,0.000610352,0.00715942,
364,-0.00488281,0.00708008,
366,0.000610352,0.00695801,
368,-0.0170898,0.00700073,
370,-0.00183105,0.00695801,
372,-0.00488281,0.00698853,
374,-0.00366211,0.00700684,
376,0.00915527,0.00708618,
378,-0.0183105,0.00726929,
380,-0.00671387,0.0072998,
382,0.00366211,0.0072998,
384,-0.00732422,0.00723877,
386,-0.000610352,0.00716553,
388,-0.0146484,0.00721436,
390,-0.0109863,0.00731201,
392,-0.00305176,0.00728149,
394,-0.00976563,0.0072876,
396,-0.0134277,0.00741577,
398,-0.0012207,0.00725708,
400,-0.00732422,0.00732422,
402,0.00366211,0.00734253,
404,0.00244141,0.0072876,
406,-0.00915527,0.00717773,
408,-0.010376,0.00713501,
410,0,0.00703125,
412,0.0012207,0.00697632,
414,-0.00183105,0.00697632,
416,0,0.0069458,
418,-0.00366211,0.00690918,
420,-0.00915527,0.00696411,
422,0.00488281,0.00698242,
424,-0.00183105,0.00693359,
426,-0.00793457,0.00689697,
428,-0.010376,0.00698853,
430,-0.00549316,0.00687256,
432,-0.00732422,0.0069458,
434,-0.0134277,0.00705566,
436,-0.0115967,0.00714722,
438,-0.00183105,0.00707397,
440,-0.00732422,0.00704956,
442,0.00915527,0.00709229,
444,0.00793457,0.00706177,
446,0.00183105,0.00705566,
448,0.0109863,0.00714111,
450,-0.0140381,0.00721436,
452,0.00488281,0.00718384,
454,0.010376,0.00725098,
456,-0.00427246,0.00728149,
458,0.00305176,0.00720215,
460,-0.00671387,0.00726318,
462,-0.0152588,0.0072998,
464,-0.000610352,0.00720215,
466,-0.00915527,0.00725708,
468,-0.00732422,0.00712891,
470,-0.0109863,0.00714111,
472,-0.0115967,0.00720825,
474,-0.0170898,0.00720215,
476,-0.0177002,0.00723267,
478,-0.010376,0.00720825,
480,-0.00305176,0.00714722,
482,0.00549316,0.00720215,
484,-0.0177002,0.0072937,
486,-0.00427246,0.00721436,
488,0.00976563,0.00720215,
490,0.00793457,0.00725098,
492,0.000610352,0.00715332,
494,0.00366211,0.00714111,
496,0.00488281,0.00710449,
498,-0.0195313,0.00717163,
500,-0.010376,0.00717773,
502,0.0012207,0.00703735,
504,-0.0115967,0.00714111,
506,-0.0115967,0.00723877,
508,-0.020752,0.00742187,
510,-0.0146484,0.00748901,
512,-0.0109863,0.00750122,
514,-0.00244141,0.00744019,
516,-0.000610352,0.00742187,
518,-0.00244141,0.00740356,
520,0.0012207,0.00734253,
522,-0.000610352,0.00728149,
524,-0.00305176,0.00722046,
526,-0.000610352,0.00722656,
528,-0.00183105,0.00723267,
530,0.00244141,0.00712891,
532,-0.0140381,0.00721436,
534,-0.00427246,0.00721436,
536,-0.00854492,0.00725098,
538,-0.0109863,0.00726929,
540,-0.00488281,0.00723267,
542,-0.00671387,0.00726318,
544,-0.0115967,0.0072998,
546,0.0012207,0.00720215,
548,-0.00793457,0.00719604,
550,-0.00854492,0.00725098,
552,0.00488281,0.00719604,
554,0.00671387,0.00708618,
556,-0.00854492,0.00716553,
558,-0.00305176,0.00714111,
560,0.00915527,0.0071106,
562,0.00732422,0.00717773,
564,0.00671387,0.00719604,
566,-0.00854492,0.00727539,
568,-0.00854492,0.00718994,
570,-0.00305176,0.00720215,
572,0.0158691,0.00731201,
574,-0.00488281,0.00732422,
576,-0.00915527,0.00732422,
578,-0.020752,0.00734863,
580,-0.000610352,0.0072876,
582,-0.00183105,0.00726929,
584,-0.00183105,0.00721436,
586,-0.0115967,0.00732422,
588,-0.0189209,0.00736694,
590,-0.0128174,0.00738525,
592,0.00244141,0.00737915,
594,0.00427246,0.00732422,
596,-0.0170898,0.00736084,
598,-0.00427246,0.00739136,
600,0.00244141,0.00734253,
602,0.0128174,0.00743408,
604,-0.012207,0.00753174,
606,-0.0140381,0.00758057,
608,0.00976563,0.00757446,
610,-0.0128174,0.00770264,
612,0.00183105,0.00770874,
614,-0.0213623,0.00790405,
616,-0.00549316,0.00795898,
618,-0.00854492,0.00800781,
620,-0.010376,0.00802002,
622,-0.00671387,0.00803833,
624,-0.0115967,0.00813599,
626,-0.00488281,0.00810547,
628,0.012207,0.00812378,
630,-0.000610352,0.00807495,
632,-0.012207,0.00812378,
634,-0.012207,0.00811157,
636,0.00854492,0.00808105,
638,-0.000610352,0.00806885,
640,0.000610352,0.00800171,
642,-0.0109863,0.00802002,
644,-0.0164795,0.00810547,
646,-0.010376,0.00819092,
648,0.00915527,0.00817261,
650,-0.000610352,0.00803833,
652,0.000610352,0.00799561,
654,-0.0146484,0.00803833,
656,-0.00488281,0.00804443,
658,-0.00793457,0.00809326,
660,-0.00793457,0.00810547,
662,-0.0115967,0.00806885,
664,-0.00671387,0.00812988,
666,-0.012207,0.0081604,
668,-0.0170898,0.00825806,
670,-0.0146484,0.00829468,
672,-0.00366211,0.00821533,
674,-0.0109863,0.0081543,
676,-0.00305176,0.00800781,
678,-0.00427246,0.00794678,
680,-0.00488281,0.00796509,
682,-0.00488281,0.00795898,
684,-0.00549316,0.00783691,
686,-0.00610352,0.00785522,
688,-0.00549316,0.0078125,
690,-0.00366211,0.00776978,
692,-0.00305176,0.00779419,
694,-0.0170898,0.00792847,
696,-0.0012207,0.00789185,
698,-0.0012207,0.00770874,
700,-0.0109863,0.00771484,
702,0.00183105,0.00772095,
704,0.00854492,0.00769043,
706,-0.00305176,0.00760498,
708,-0.000610352,0.00740356,
710,0.00732422,0.00733032,
712,0.0152588,0.00737305,
714,-0.00549316,0.00740356,
716,-0.0128174,0.00752563,
718,-0.00427246,0.00754395,
720,0.0115967,0.00764771,
722,0.0012207,0.00765381,
724,-0.0170898,0.00779419,
726,-0.00488281,0.00783691,
728,-0.0195313,0.00801392,
730,-0.00915527,0.00808105,
732,-0.00366211,0.00797729,
734,-0.0195313,0.00812988,
736,-0.0152588,0.00819702,
738,-0.0140381,0.00822754,
740,-0.012207,0.00830078,
742,-0.00671387,0.00830078,
744,-0.0140381,0.0083252,
746,-0.010376,0.00841675,
748,-0.00488281,0.00838623,
750,0.00854492,0.00838623,
752,-0.00549316,0.00839233,
754,-0.00488281,0.00837402,
756,0.00183105,0.00830688,
758,-0.00793457,0.00835571,
760,-0.00427246,0.00830688,
762,-0.000610352,0.00823975,
764,-0.00549316,0.00822754,
766,-0.00854492,0.00822754,
768,-0.00427246,0.00818481,
770,-0.00610352,0.00821533,
772,0.0115967,0.00817261,
774,-0.00183105,0.00814209,
776,-0.0146484,0.00819702,
778,0.0012207,0.00800171,
780,0.00793457,0.00807495,
782,0.00305176,0.00808716,
784,-0.0158691,0.00822754,
786,-0.00427246,0.0081543,
788,-0.00549316,0.00802002,
790,-0.00915527,0.0079834,
792,-0.00915527,0.00805054,
794,-0.0134277,0.00814209,
796,0.00183105,0.0079895,
798,0.00305176,0.00797729,
800,-0.00854492,0.00803833,
802,-0.00366211,0.00794678,
804,-0.00915527,0.00791626,
806,-0.0115967,0.00789185,
808,-0.00366211,0.00783081,
810,-0.00915527,0.00779419,
812,0.00671387,0.00784302,
814,-0.0195313,0.00782471,
816,-0.0109863,0.00787964,
818,0.00366211,0.00783081,
820,-0.00549316,0.00778198,
822,-0.00610352,0.00777588,
824,-0.00671387,0.00772705,
826,0.00244141,0.00770264,
828,-0.00427246,0.00762329,
830,-0.0140381,0.00775757,
832,-0.00549316,0.00769043,
834,0.00305176,0.00759888,
836,-0.0250244,0.00776367,
838,-0.00244141,0.00778198,
840,-0.00366211,0.0078125,
842,0.00732422,0.00777588,
844,-0.020752,0.0078186,
846,0.00427246,0.00775757,
848,0.00488281,0.00771484,
850,-0.0128174,0.00783691,
852,-0.00366211,0.00786743,
854,0.00915527,0.0078125,
856,-0.00854492,0.00784912,
858,-0.00976563,0.00786743,
860,-0.00854492,0.00787354,
862,0.00488281,0.0078064,
864,-0.0134277,0.00787354,
866,-0.0219727,0.00797119,
868,-0.00549316,0.00785522,
870,0.000610352,0.00771484,
872,-0.00610352,0.00773926,
874,-0.000610352,0.0076355,
876,-0.0012207,0.00761719,
878,-0.00305176,0.00760498,
880,-0.00183105,0.00757446,
882,-0.00305176,0.00755615,
884,-0.00305176,0.00753174,
886,-0.00305176,0.00750122,
888,-0.00732422,0.00751953,
890,-0.0128174,0.00761108,
892,-0.00549316,0.0076355,
894,-0.0115967,0.00758057,
896,-0.00305176,0.00759888,
898,0.00732422,0.00765991,
900,-0.000610352,0.00755615,
902,-0.0128174,0.00766602,
904,0.00488281,0.00762939,
906,0.0012207,0.00761108,
908,-0.00793457,0.00768433,
910,-0.00488281,0.00765991,
912,-0.00305176,0.00753784,
914,-0.0213623,0.00769653,
916,-0.00976563,0.00766602,
918,0.000610352,0.00762939,
920,-0.00610352,0.00757446,
922,0.00305176,0.00759277,
924,0,0.00742187,
926,-0.00976563,0.0074707,
928,-0.00732422,0.00734863,
930,0.00305176,0.0072876,
932,0.00244141,0.00727539,
934,-0.0109863,0.00718994,
936,-0.00915527,0.00712891,
938,-0.0109863,0.00709839,
940,-0.012207,0.00709839,
942,0.00671387,0.00709839,
944,-0.0109863,0.00706787,
946,0.00183105,0.00698242,
948,-0.00976563,0.00703125,
950,-0.010376,0.00704956,
952,0.00854492,0.00708008,
954,0.00854492,0.0071167,
956,-0.00366211,0.00713501,
958,0.00732422,0.00712891,
960,-0.0115967,0.00720215,
962,-0.0115967,0.00731201,
964,0.00732422,0.00733032,
966,0,0.00724487,
968,-0.00549316,0.00725708,
970,-0.0128174,0.00732422,
972,-0.00549316,0.00726318,
974,-0.0158691,0.00740356,
976,0.00244141,0.00728149,
978,0.00366211,0.00730591,
980,-0.00427246,0.00726929,
982,-0.00366211,0.00727539,
984,-0.00915527,0.00720825,
986,-0.0109863,0.00727539,
988,-0.000610352,0.00722656,
990,-0.0012207,0.00714722,
992,-0.0128174,0.00718384,
994,-0.00366211,0.00708618,
996,0.00671387,0.00713501,
998,0,0.00710449,
1000,-0.00671387,0.00708618,
1002,0.00183105,0.00706787,
1004,-0.00427246,0.00701904,
1006,0.00366211,0.0069397,
1008,-0.00183105,0.00692139,
1010,-0.0115967,0.0069458,
1012,-0.00671387,0.0069458,
1014,-0.00427246,0.00679321,
1016,-0.00793457,0.0067627,
1018,0.00305176,0.00675659,
1020,0.00488281,0.00675049,
1022,0.0164795,0.00685425,
1024,-0.00976563,0.00688477,
1026,-0.00732422,0.00693359,
1028,0.00183105,0.00690918,
1030,0.00366211,0.00680542,
1032,-0.00244141,0.0067749,
1034,-0.0158691,0.00690308,
1036,-0.0146484,0.00679932,
1038,-0.00915527,0.00686646,
1040,-0.0213623,0.00704346,
1042,-0.00183105,0.00698853,
1044,0.00305176,0.00681152,
1046,0.0012207,0.00678101,
1048,0.00793457,0.00681152,
1050,-0.00366211,0.00671997,
1052,-0.0012207,0.00669556,
1054,-0.00976563,0.00670166,
1056,0.00732422,0.00668945,
1058,0,0.0065918,
1060,-0.0115967,0.00662231,
1062,-0.0134277,0.00670776,
1064,-0.010376,0.00667725,
1066,-0.00244141,0.00648193,
1068,0.00244141,0.00645142,
1070,-0.000610352,0.00645142,
1072,-0.012207,0.00651245,
1074,-0.00732422,0.00657959,
1076,0.00183105,0.00658569,
1078,0.000610352,0.00656128,
1080,0.00305176,0.00657349,
1082,-0.0170898,0.00671387,
1084,-0.0134277,0.00681763,
1086,0.0152588,0.0069397,
1088,-0.00366211,0.00690308,
1090,-0.0268555,0.00704346,
1092,-0.000610352,0.00699463,
1094,-0.0134277,0.00701294,
1096,0.00427246,0.00702515,
1098,-0.0158691,0.0071106,
1100,-0.0244141,0.00734863,
1102,0.020752,0.00742798,
1104,-0.020752,0.00758667,
1106,-0.00183105,0.00759277,
1108,0.00244141,0.00753784,
1110,-0.0140381,0.00762939,
1112,-0.000610352,0.00760498,
1114,-0.0146484,0.00753784,
1116,-0.0134277,0.00757446,
1118,-0.00305176,0.00759888,
1120,-0.0128174,0.00766602,
1122,-0.00427246,0.00767822,
1124,-0.000610352,0.00768433,
1126,0,0.00758667,
1128,-0.00671387,0.00758057,
1130,-0.00549316,0.00760498,
1132,0.0115967,0.00769653,
1134,-0.00488281,0.0076355,
1136,-0.00732422,0.00761719,
1138,0.000610352,0.00751343,
1140,0.000610352,0.00739746,
1142,0.0140381,0.0074707,
1144,0.00366211,0.00739746,
1146,-0.000610352,0.00738525,
1148,-0.00854492,0.00737305,
1150,-0.00183105,0.0072876,
1152,0.00244141,0.00722656,
1154,-0.010376,0.00724487,
1156,-0.010376,0.00731201,
1158,-0.0164795,0.00740356,
1160,-0.0268555,0.00755615,
1162,-0.0109863,0.00755005,
1164,-0.00305176,0.00750732,
1166,-0.00183105,0.00752563,
1168,0.00976563,0.00756836,
1170,-0.0213623,0.00765381,
1172,-0.0183105,0.00778198,
1174,0.00244141,0.00764771,
1176,0.00610352,0.00768433,
1178,-0.0128174,0.00777588,
1180,-0.00366211,0.00776978,
1182,0.0012207,0.00774536,
1184,-0.0177002,0.00783081,
1186,-0.0012207,0.00773315,
1188,-0.000610352,0.00773315,
1190,-0.00488281,0.00776978,
1192,-0.00488281,0.00769043,
1194,-0.0146484,0.00780029,
1196,-0.00305176,0.00776367,
1198,-0.00854492,0.00784912,
1200,-0.00915527,0.00787354,
1202,-0.00488281,0.00790405,
1204,-0.00549316,0.00791626,
1206,-0.00610352,0.00794067,
1208,0.00610352,0.0079834,
1210,-0.0109863,0.00797729,
1212,-0.0195313,0.00810547,
1214,-0.00488281,0.00811157,
1216,-0.0012207,0.00804443,
1218,-0.00427246,0.00805664,
1220,-0.00793457,0.00808716,
1222,-0.00366211,0.00795898,
1224,-0.0152588,0.00801392,
1226,-0.00915527,0.00803223,
1228,-0.000610352,0.00802002,
1230,0.00976563,0.00808105,
1232,0.00549316,0.00811157,
1234,-0.0134277,0.00808716,
1236,-0.0238037,0.00817871,
1238,0.00549316,0.00814209,
1240,0.0109863,0.00803833,
1242,0.0012207,0.00803223,
1244,-0.00244141,0.00802612,
1246,0.0012207,0.00802612,
1248,0.00427246,0.0079895,
1250,-0.0109863,0.00806274,
1252,0.00549316,0.00810547,
1254,-0.00183105,0.00802612,
1256,-0.0219727,0.00817261,
1258,-0.00610352,0.00823364,
1260,-0.0177002,0.00829468,
1262,0.00183105,0.00817871,
1264,-0.0109863,0.00818481,
1266,-0.0292969,0.00845337,
1268,0.00183105,0.00844727,
1270,-0.00610352,0.0085022,
1272,0.00305176,0.00841064,
1274,-0.0189209,0.00852661,
1276,-0.0140381,0.00864868,
1278,-0.00488281,0.00869141,
1280,-0.010376,0.00876465,
1282,-0.00793457,0.0086731,
1284,-0.00793457,0.00861816,
1286,-0.00305176,0.00849609,
1288,-0.00976563,0.00855713,
1290,-0.00488281,0.0083374,
1292,-0.00366211,0.00836792,
1294,-0.000610352,0.00823975,
1296,-0.00427246,0.00823975,
1298,-0.010376,0.00818481,
1300,-0.00671387,0.00800781,
1302,0.00366211,0.00783691,
1304,0,0.00762939,
1306,0.00915527,0.00770264,
1308,0.0012207,0.00769043,
1310,-0.000610352,0.00755615,
1312,0.00610352,0.00761108,
1314,0.0012207,0.00747681,
1316,0.0177002,0.00751953,
1318,0.010376,0.00759277,
1320,-0.0140381,0.00760498,
1322,-0.00915527,0.00765381,
1324,-0.0140381,0.00778809,
1326,-0.00244141,0.0078125,
1328,-0.0177002,0.00792236,
1330,-0.0152588,0.00802002,
1332,-0.0219727,0.00812378,
1334,-0.00244141,0.00809937,
1336,-0.0195313,0.00822144,
1338,-0.00366211,0.00825195,
1340,-0.00671387,0.00831299,
1342,-0.00427246,0.00821533,
1344,-0.010376,0.00828247,
1346,0.0012207,0.00828857,
1348,0.00671387,0.00827026,
1350,-0.012207,0.00837402,
1352,-0.00854492,0.00843506,
1354,-0.00854492,0.00841675,
1356,-0.00244141,0.0083374,
1358,0.00671387,0.00823975,
1360,0.00244141,0.00799561,
1362,-0.0128174,0.00801392,
1364,-0.0115967,0.00809937,
1366,0.012207,0.00820313,
1368,0.00549316,0.0081604,
1370,-0.0177002,0.00812378,
1372,0.012207,0.00806274,
1374,0.0146484,0.00818481,
1376,0.0250244,0.00837402,
1378,-0.00915527,0.0083374,
1380,-0.0201416,0.0085022,
1382,-0.00305176,0.00852051,
1384,0.00549316,0.00839844,
1386,-0.0134277,0.00852051,
1388,-0.0219727,0.00873413,
1390,-0.020752,0.00889282,
1392,0.00305176,0.00887451,
1394,-0.00610352,0.00878906,
1396,-0.0238037,0.00899658,
1398,-0.00244141,0.00893555,
1400,0.00366211,0.00888062,
1402,0,0.00883179,
1404,-0.0109863,0.00888672,
1406,-0.010376,0.00892944,
1408,-0.00732422,0.00894165,
1410,-0.0164795,0.00899658,
1412,-0.00732422,0.00887451,
1414,-0.00854492,0.00891113,
1416,-0.00915527,0.00899048,
1418,0.00427246,0.00899048,
1420,0.0177002,0.00908813,
1422,0.00793457,0.00913086,
1424,-0.0189209,0.00916748,
1426,0.00854492,0.00916138,
1428,-0.000610352,0.00916138,
1430,0.00488281,0.00911255,
1432,0.000610352,0.00906372,
1434,-0.00854492,0.00901489,
1436,-0.0134277,0.00891113,
1438,-0.0140381,0.00899658,
1440,-0.00183105,0.00890503,
1442,0.00183105,0.00891113,
1444,0.0152588,0.00903931,
1446,-0.00976563,0.00912476,
1448,-0.00732422,0.00915527,
1450,0.00610352,0.00910645,
1452,0,0.00905151,
1454,-0.00671387,0.00910034,
1456,-0.0128174,0.00900879,
1458,-0.00915527,0.00903931,
1460,-0.00915527,0.00895386,
1462,-0.0128174,0.00906372,
1464,-0.0146484,0.00910034,
1466,0.000610352,0.00881348,
1468,-0.0183105,0.00897827,
1470,-0.0109863,0.0090271,
1472,0.0189209,0.00918579,
1474,0.00305176,0.0090271,
1476,-0.0140381,0.0090271,
1478,-0.000610352,0.00898438,
1480,-0.00305176,0.00891113,
1482,0.00671387,0.00889893,
1484,0.000610352,0.00882568,
1486,-0.0146484,0.00894165,
1488,-0.00854492,0.00892944,
1490,-0.00732422,0.00895386,
1492,-0.00305176,0.00894775,
1494,-0.00915527,0.0090332,
1496,0.010376,0.00909424,
1498,0.00671387,0.00905762,
1500,-0.0170898,0.00916138,
1502,-0.00366211,0.00916138,
1504,0.00427246,0.0092041,
1506,0.00366211,0.00914917,
1508,-0.00305176,0.00916748,
1510,-0.0152588,0.00931396,
1512,0.012207,0.009375,
1514,-0.00244141,0.00938721,
1516,-0.0140381,0.00935059,
1518,-0.00366211,0.00928345,
1520,0.00793457,0.00922241,
1522,-0.00244141,0.00915527,
1524,0.0012207,0.0090271,
1526,-0.00610352,0.00906372,
1528,-0.020752,0.00909424,
1530,-0.00732422,0.00901489,
1532,0.00793457,0.00887451,
1534,-0.0213623,0.00906372,
1536,0.00732422,0.00894165,
1538,-0.00610352,0.00896606,
1540,-0.0109863,0.00900879,
1542,-0.00976563,0.00906372,
1544,-0.00427246,0.00900269,
1546,0.00366211,0.0090271,
1548,0.0201416,0.00916138,
1550,-0.00732422,0.00911255,
1552,-0.0109863,0.00913696,
1554,0.00183105,0.00906982,
1556,-0.00244141,0.00906982,
1558,0.00305176,0.0090332,
1560,-0.00671387,0.00907593,
1562,-0.00793457,0.0090271,
1564,-0.00549316,0.00896606,
1566,-0.0158691,0.00900269,
1568,-0.0115967,0.00906372,
1570,0.000610352,0.00889282,
1572,0.0140381,0.00891113,
1574,0.00366211,0.00880127,
1576,-0.000610352,0.00855713,
1578,-0.000610352,0.00847168,
1580,-0.012207,0.00839233,
1582,0.0012207,0.00837402,
1584,0.00732422,0.00839233,
1586,-0.00366211,0.00829468,
1588,0.000610352,0.00808105,
1590,-0.0170898,0.00804443,
1592,-0.0170898,0.00818481,
1594,0.00976563,0.00822144,
1596,0.00305176,0.00801392,
1598,-0.00427246,0.00803223,
1600,-0.0152588,0.00814819,
1602,-0.00427246,0.00819092,
1604,-0.00183105,0.00809937,
1606,-0.010376,0.00809937,
1608,-0.00183105,0.00804443,
1610,-0.000610352,0.00788574,
1612,0.012207,0.00793457,
1614,-0.0158691,0.00800781,
1616,-0.00488281,0.00796509,
1618,0.022583,0.00814819,
1620,0.00610352,0.00803223,
1622,-0.0268555,0.00822144,
1624,-0.00183105,0.00805054,
1626,0.0280762,0.00824585,
1628,-0.0292969,0.00853271,
1630,-0.0115967,0.00859985,
1632,0.00427246,0.00863647,
1634,-0.00366211,0.00858765,
1636,0.00366211,0.00848999,
1638,-0.0140381,0.00848999,
1640,-0.0219727,0.00869141,
1642,-0.00488281,0.00872192,
1644,-0.000610352,0.00857544,
1646,-0.0115967,0.00859375,
1648,0.00854492,0.00860596,
1650,-0.0177002,0.00872192,
1652,-0.00610352,0.00878296,
1654,0.0109863,0.00882568,
1656,0.0177002,0.00887451,
1658,-0.0012207,0.00879517,
1660,-0.0140381,0.00884399,
1662,0.00244141,0.00874023,
1664,0,0.00859375,
1666,-0.0140381,0.00872803,
1668,-0.00793457,0.00862427,
1670,-0.00915527,0.00860596,
1672,-0.0134277,0.00855103,
1674,0.00915527,0.00861206,
1676,-0.00366211,0.0085083,
1678,-0.00488281,0.00855103,
1680,0.00488281,0.00856934,
1682,-0.000610352,0.0085083,
1684,-0.012207,0.00862427,
1686,0,0.00847778,
1688,-0.0012207,0.00840454,
1690,-0.0177002,0.0085083,
1692,-0.00549316,0.00853271,
1694,0.00549316,0.00849609,
1696,-0.0146484,0.00853882,
1698,0.000610352,0.00847778,
1700,0.00305176,0.0083374,
1702,0.000610352,0.00830688,
1704,-0.00305176,0.00829468,
1706,-0.012207,0.00838013,
1708,-0.0012207,0.00836182,
1710,0,0.00820923,
1712,-0.0164795,0.00825195,
1714,-0.00427246,0.00827026,
1716,0.0109863,0.00823975,
1718,-0.00732422,0.00827637,
1720,-0.00244141,0.00822144,
1722,0.00854492,0.00828247,
1724,-0.00488281,0.00831909,
1726,-0.00488281,0.00830688,
1728,0.00244141,0.00812378,
1730,-0.00854492,0.00813599,
1732,-0.0109863,0.0081665,
1734,-0.0164795,0.00811768,
1736,-0.0152588,0.00819702,
1738,-0.00244141,0.0081604,
1740,-0.0109863,0.0081604,
1742,-0.00427246,0.00810547,
1744,-0.00488281,0.00811157,
1746,0.00427246,0.00811768,
1748,0.00671387,0.0079834,
1750,-0.00366211,0.00794678,
1752,-0.00549316,0.00789185,
1754,-0.00183105,0.00789185,
1756,0.00610352,0.00792847,
1758,-0.00244141,0.00792236,
1760,-0.0158691,0.00801392,
1762,-0.00732422,0.00800781,
1764,0.000610352,0.00795898,
1766,0.00976563,0.00789795,
1768,-0.0128174,0.00791016,
1770,-0.00915527,0.00799561,
1772,0.0158691,0.00801392,
1774,0.00671387,0.00804443,
1776,-0.0146484,0.00818481,
1778,0.00488281,0.00822754,
1780,-0.00671387,0.00817261,
1782,0.00671387,0.00822754,
1784,-0.00305176,0.00818481,
1786,-0.00732422,0.00822144,
1788,-0.0012207,0.00822754,
1790,-0.0115967,0.00817261,
1792,-0.00427246,0.00804443,
1794,-0.00366211,0.0079834,
1796,-0.00488281,0.00800171,
1798,-0.0189209,0.00814819,
1800,-0.00854492,0.00808105,
1802,-0.00244141,0.00806274,
1804,0.00183105,0.00806274,
1806,0.00244141,0.0079834,
1808,-0.00488281,0.00801392,
1810,-0.0195313,0.00820313,
1812,0.00549316,0.00813599,
1814,0.0128174,0.00810547,
1816,-0.0012207,0.00806885,
1818,-0.00305176,0.00787354,
1820,0.00366211,0.00784912,
1822,0.00610352,0.0076416,
1824,-0.00549316,0.00767822,
1826,-0.0012207,0.00740967,
1828,-0.00549316,0.00717163,
1830,-0.0109863,0.00716553,
1832,-0.00671387,0.00718994,
1834,-0.0164795,0.00731812,
1836,-0.00915527,0.00737305,
1838,-0.00549316,0.0072876,
1840,-0.0164795,0.00723267,
1842,-0.0115967,0.0072998,
1844,0.000610352,0.0072998,
1846,-0.00610352,0.00724487,
1848,0.00305176,0.00718994,
1850,-0.00793457,0.00709229,
1852,-0.00671387,0.00709839,
1854,-0.00976563,0.00708618,
1856,-0.00427246,0.0069519,
1858,0.010376,0.00704346,
1860,0,0.00690308,
1862,-0.00366211,0.00691528,
1864,-0.0164795,0.00708008,
1866,-0.00427246,0.00698242,
1868,0.0195313,0.00709839,
1870,-0.00183105,0.00702515,
1872,-0.00305176,0.00692139,
1874,-0.0177002,0.00700684,
1876,-0.00244141,0.00699463,
1878,0.00549316,0.00700073,
1880,-0.0012207,0.00696411,
1882,-0.0012207,0.00697021,
1884,-0.00915527,0.0069397,
1886,-0.010376,0.00704346,
1888,-0.00915527,0.0071228,
1890,-0.0128174,0.00707397,
1892,0.00671387,0.00708618,
1894,0.00732422,0.00710449,
1896,0.00244141,0.00698242,
1898,-0.00854492,0.00706177,
1900,-0.0164795,0.00719604,
1902,0.00244141,0.00721436,
1904,0.00427246,0.00722656,
1906,-0.022583,0.00733032,
1908,0.00427246,0.00736084,
1910,-0.0115967,0.00747681,
1912,-0.0152588,0.0074646,
1914,-0.00305176,0.00745239,
1916,-0.010376,0.00744629,
1918,0.0183105,0.00755615,
1920,0.03479,0.00787964,
1922,-0.00610352,0.00785522,
1924,-0.0158691,0.00796509,
1926,0.00976563,0.00801392,
1928,0.00610352,0.00805054,
1930,-0.00549316,0.00802002,
1932,-0.00488281,0.00795898,
1934,-0.0158691,0.00795288,
1936,-0.0250244,0.00805054,
1938,0.00366211,0.00806274,
1940,-0.0183105,0.00813599,
1942,0.00793457,0.00817261,
1944,0.010376,0.00822754,
1946,0,0.00818481,
1948,0,0.00811768,
1950,-0.00366211,0.00811768,
1952,0.0128174,0.00819092,
1954,-0.00427246,0.00821533,
1956,-0.0170898,0.0083252,
1958,0.00366211,0.0083374,
1960,-0.00549316,0.00823364,
1962,0.000610352,0.0081665,
1964,0.00854492,0.00824585,
1966,-0.010376,0.00825195,
1968,-0.0219727,0.00834351,
1970,0.0115967,0.00836792,
1972,0.0012207,0.00822144,
1974,0.000610352,0.0081604,
1976,0,0.00801392,
1978,-0.00183105,0.0079834,
1980,-0.0280762,0.00819702,
1982,0.0195313,0.0083252,
1984,0.0128174,0.00842285,
1986,0.012207,0.00847168,
1988,0.010376,0.00856323,
1990,-0.0219727,0.00866699,
1992,-0.00854492,0.00870972,
1994,0.0012207,0.0086853,
1996,0.00671387,0.00870361,
1998,0.00488281,0.00856323,
2000,-0.0201416,0.0086792,
2002,-0.0189209,0.00884399,
2004,-0.00610352,0.00888672,
2006,0.0012207,0.00887451,
2008,0.00183105,0.00884399,
2010,-0.0146484,0.00879517,
2012,0,0.00874023,
2014,-0.00854492,0.00869751,
2016,-0.0164795,0.0088501,
2018,-0.00244141,0.00884399,
2020,0.00183105,0.00882568,
2022,-0.00366211,0.00880127,
2024,0.00549316,0.00880127,
2026,-0.0158691,0.00894775,
2028,0.0128174,0.009021,
2030,0.00366211,0.00894775,
2032,-0.00610352,0.00894165,
2034,-0.0250244,0.0090271,
2036,0.0268555,0.0092041,
2038,0.00915527,0.00924072,
2040,-0.010376,0.00917969,
2042,-0.0140381,0.0092041,
2044,-0.00671387,0.00926514,
2046,-0.00488281,0.00925293,
2048,0.000610352,0.00922852,
2050,-0.00854492,0.00923462,
2052,-0.0128174,0.00929565,
2054,-0.00854492,0.00928345,
2056,-0.0128174,0.0093689,
2058,-0.00427246,0.00930786,
2060,0.00366211,0.00934448,
2062,-0.000610352,0.00931396,
2064,-0.0201416,0.00935059,
2066,0.00305176,0.00933838,
2068,0.0219727,0.00936279,
2070,-0.00854492,0.00942993,
2072,-0.0280762,0.00968018,
2074,0.00366211,0.00953979,
2076,-0.0012207,0.00952759,
2078,-0.00671387,0.00953979,
2080,-0.0183105,0.00971069,
2082,-0.00549316,0.00975342,
2084,-0.00854492,0.00974731,
2086,0.00183105,0.00966187,
2088,-0.000610352,0.00957642,
2090,-0.0115967,0.00956421,
2092,0.0115967,0.00961304,
2094,0.00610352,0.00960083,
2096,0.00976563,0.00967407,
2098,-0.00488281,0.00963745,
2100,-0.00854492,0.00955811,
2102,0,0.00953369,
2104,0,0.00949097,
2106,-0.020752,0.00947266,
2108,-0.00732422,0.00950317,
2110,-0.00793457,0.00946655,
2112,-0.00915527,0.00940552,
2114,-0.00854492,0.00946045,
2116,-0.00793457,0.00943604,
2118,-0.00244141,0.00927734,
2120,-0.00976563,0.0090271,
2122,0.00976563,0.00906372,
2124,0.0213623,0.00911865,
2126,-0.0115967,0.00913696,
2128,0.00366211,0.00911255,
2130,0.0164795,0.00922241,
2132,-0.00915527,0.00926514,
2134,-0.00793457,0.00918579,
2136,-0.00976563,0.0090332,
2138,-0.00549316,0.00905151,
2140,-0.0109863,0.00897827,
2142,-0.0177002,0.00907593,
2144,-0.00793457,0.00905151,
2146,-0.0128174,0.00917969,
2148,-0.020752,0.00938721,
2150,0.0170898,0.00952148,
2152,0.0177002,0.00957031,
2154,-0.00732422,0.00960083,
2156,-0.0158691,0.00958862,
2158,-0.00366211,0.00958862,
2160,-0.00793457,0.00961304,
2162,-0.00854492,0.00969238,
2164,-0.0109863,0.0097168,
2166,-0.0115967,0.009729,
2168,0.0140381,0.00964966,
2170,-0.0323486,0.00985718,
2172,-0.0170898,0.0100159,
2174,0.0164795,0.0101746,
2176,-0.00427246,0.0102173,
2178,-0.00305176,0.0102295,
2180,-0.0177002,0.0101257,
2182,-0.0146484,0.0100769,
2184,-0.00305176,0.00997925,
2186,0.00549316,0.00991211,
2188,-0.0158691,0.00996704,
2190,-0.00244141,0.00977173,
2192,-0.0152588,0.00983887,
2194,0.0012207,0.00983887,
2196,0.0134277,0.00990601,
2198,-0.00305176,0.0098877,
2200,-0.0152588,0.00983887,
2202,0,0.00964966,
2204,-0.0115967,0.00970459,
2206,-0.0201416,0.0098938,
2208,0.0115967,0.00999146,
2210,-0.0012207,0.00985718,
2212,-0.0152588,0.0100098,
2214,-0.0177002,0.0101013,
2216,0.00549316,0.00999146,
2218,0.0170898,0.0101379,
2220,-0.0195313,0.0103149,
2222,-0.00793457,0.0103577,
2224,-0.0115967,0.0104187,
2226,-0.010376,0.0103638,
2228,0.0146484,0.0103821,
2230,-0.0201416,0.0105469,
2232,-0.0170898,0.0106567,
2234,-0.0177002,0.0105835,
2236,-0.00183105,0.0103333,
2238,0.00793457,0.010321,
2240,-0.00976563,0.0103149,
2242,-0.00244141,0.010199,
2244,-0.00793457,0.0102112,
2246,-0.00488281,0.0102112,
2248,0.00915527,0.0102966,
2250,-0.00244141,0.0102356,
2252,-0.010376,0.0102112,
2254,-0.00610352,0.0101868,
2256,0.00244141,0.010083,
2258,-0.00244141,0.0100647,
2260,-0.0128174,0.0101563,
2262,-0.000610352,0.0101563,
2264,-0.0170898,0.0101257,
2266,-0.010376,0.010199,
2268,0.0170898,0.0101501,
2270,0.00915527,0.0101563,
2272,0.00244141,0.0098999,
2274,0.00549316,0.00991821,
2276,-0.00915527,0.00999756,
2278,-0.00610352,0.00999146,
2280,0.010376,0.00991211,
2282,-0.00671387,0.00992432,
2284,-0.0244141,0.010083,
2286,-0.012207,0.0101868,
2288,-0.0128174,0.0103088,
2290,-0.00854492,0.0102783,
2292,-0.0109863,0.0102722,
2294,-0.00488281,0.01026,
2296,0.00610352,0.0102234,
2298,-0.00732422,0.0102478,
2300,-0.012207,0.0102844,
2302,0.00366211,0.010321,
2304,-0.00183105,0.0103394,
2306,-0.00915527,0.0102234,
2308,-0.00732422,0.0102234,
2310,-0.0146484,0.0102905,
2312,0.0012207,0.0102112,
2314,0.000610352,0.0101318,
2316,-0.00793457,0.0101318,
2318,-0.00854492,0.0101929,
2320,0.0164795,0.01026,
2322,0.0115967,0.0102783,
2324,0.00854492,0.0101501,
2326,-0.0262451,0.0102966,
2328,-0.00671387,0.0103271,
2330,0.00915527,0.0102539,
2332,-0.00183105,0.0101807,
2334,-0.0189209,0.0102905,
2336,-0.010376,0.0102966,
2338,-0.0140381,0.0103821,
2340,-0.022583,0.010498,
2342,0.00671387,0.0103882,
2344,0.00610352,0.0103699,
2346,0.00305176,0.0102722,
2348,-0.0152588,0.0102173,
2350,-0.0146484,0.0101929,
2352,0.00183105,0.0100342,
2354,-0.00671387,0.0100281,
2356,-0.00305176,0.0098999,
2358,0.000610352,0.00986938,
2360,-0.0262451,0.0100525,
2362,-0.0012207,0.00997925,
2364,-0.00183105,0.0098877,
2366,-0.00305176,0.00980225,
2368,0.0012207,0.00967407,
2370,0.00244141,0.009375,
2372,-0.00976563,0.00930176,
2374,-0.00305176,0.00916748,
2376,0.00671387,0.00919189,
2378,-0.00610352,0.00922241,
2380,-0.0195313,0.00924072,
2382,-0.00915527,0.00918579,
2384,0.00244141,0.00917969,
2386,0.0140381,0.00926514,
2388,-0.0012207,0.00911865,
2390,0.00244141,0.00911865,
2392,0.00305176,0.00899658,
2394,0.00244141,0.00900879,
2396,0.00305176,0.00890503,
2398,0,0.00887451,
2400,-0.012207,0.00884399,
2402,-0.0012207,0.0088562,
2404,-0.0195313,0.00893555,
2406,-0.0183105,0.00891724,
2408,-0.012207,0.00892334,
2410,-0.0231934,0.00914307,
2412,0.00732422,0.00906372,
2414,0.0109863,0.00899658,
2416,-0.00183105,0.00895996,
2418,-0.00488281,0.00883789,
2420,0.00244141,0.00866699,
2422,-0.0012207,0.00859985,
2424,0.00732422,0.00855713,
2426,0.0012207,0.00846558,
2428,-0.00793457,0.00839844,
2430,-0.0177002,0.00837402,
2432,-0.0183105,0.00838623,
2434,-0.00244141,0.00823364,
2436,-0.00610352,0.00827637,
2438,-0.0115967,0.00831299,
2440,0.00183105,0.00823364,
2442,-0.00976563,0.00830688,
2444,-0.00305176,0.00825806,
2446,0.00610352,0.00827026,
2448,0.00793457,0.00825806,
2450,0.00732422,0.00830688,
2452,-0.012207,0.0083252,
2454,-0.0134277,0.00839844,
2456,0.0299072,0.0086731,
2458,-0.00732422,0.00872192,
2460,-0.0305176,0.00889893,
2462,0.00549316,0.00894775,
2464,0.0012207,0.00878906,
2466,-0.0219727,0.00890503,
2468,-0.00427246,0.00877686,
2470,-0.020752,0.00889282,
2472,-0.00976563,0.00896606,
2474,-0.00732422,0.00898438,
2476,-0.00976563,0.00899048,
2478,-0.00488281,0.00897827,
2480,-0.0140381,0.00901489,
2482,-0.0140381,0.00908813,
2484,0.00427246,0.00888672,
2486,-0.00427246,0.00880737,
2488,-0.00366211,0.00871582,
2490,-0.00976563,0.00872803,
2492,-0.00976563,0.00871582,
2494,-0.00488281,0.00871582,
2496,0.00732422,0.00872803,
2498,0.00793457,0.00873413,
2500,-0.0195313,0.00880737,
2502,0.00183105,0.00878906,
2504,-0.0012207,0.00878296,
2506,-0.0189209,0.00888062,
2508,0.00976563,0.00890503,
2510,0.00244141,0.00878296,
2512,-0.0012207,0.00878296,
2514,-0.0262451,0.00903931,
2516,-0.00366211,0.00899658,
2518,0.00366211,0.00894775,
2520,-0.0134277,0.00891724,
2522,0.0292969,0.00909424,
2524,0.0170898,0.00917969,
2526,-0.0292969,0.00921021,
2528,0.000610352,0.00914917,
2530,0.0152588,0.00921021,
2532,-0.00488281,0.00924072,
2534,-0.010376,0.00915527,
2536,-0.0128174,0.00917969,
2538,-0.0134277,0.00917358,
2540,-0.0170898,0.00911865,
2542,-0.0177002,0.00922852,
2544,-0.00854492,0.00925293,
2546,0.00488281,0.00927124,
2548,-0.0146484,0.00926514,
2550,0.010376,0.00922241,
2552,-0.00305176,0.00923462,
2554,-0.00671387,0.00923462,
2556,0.00732422,0.00927734,
2558,0.00793457,0.00935059,
2560,-0.00976563,0.00918579,
2562,-0.00976563,0.00927124,
2564,0.0152588,0.00940552,
2566,-0.0183105,0.00955811,
2568,-0.010376,0.00964966,
2570,0.0012207,0.00963745,
2572,-0.0250244,0.00979004,
2574,0.000610352,0.00976563,
2576,-0.0189209,0.0098877,
2578,-0.00549316,0.00988159,
2580,-0.0164795,0.00985107,
2582,-0.00732422,0.00983276,
2584,0.0146484,0.00995483,
2586,0.00366211,0.00985107,
2588,-0.00549316,0.0098938,
2590,-0.00793457,0.00994873,
2592,0.0128174,0.0100464,
2594,0.00854492,0.0101074,
2596,-0.0012207,0.0100891,
2598,-0.0189209,0.0102783,
2600,-0.0286865,0.0104431,
2602,0.00183105,0.0104492,
2604,-0.00854492,0.0103394,
2606,-0.00793457,0.0102356,
2608,-0.00671387,0.0101807,
2610,-0.012207,0.0100708,
2612,0.00244141,0.010022,
2614,0.0250244,0.0101624,
2616,-0.0213623,0.0103577,
2618,-0.00549316,0.0103638,
2620,0.00671387,0.0104065,
2622,-0.00732422,0.0104675,
2624,0.000610352,0.0104004,
2626,-0.0152588,0.0105408,
2628,-0.0146484,0.0106079,
2630,-0.000610352,0.010437,
2632,-0.0128174,0.0103821,
2634,0.0128174,0.0104858,
2636,-0.00427246,0.0104675,
2638,-0.0128174,0.0104797,
2640,0.0012207,0.0104736,
2642,0.0134277,0.0105103,
2644,0.00793457,0.0105591,
2646,0.00366211,0.0105347,
2648,-0.00244141,0.0104797,
2650,0.00244141,0.0104309,
2652,0,0.0103088,
2654,-0.00976563,0.0102722,
2656,-0.00915527,0.0100647,
2658,-0.00305176,0.010022,
2660,-0.0231934,0.00994873,
2662,-0.00732422,0.00996704,
2664,-0.010376,0.0100586,
2666,-0.00854492,0.00992432,
2668,0.00305176,0.00991211,
2670,-0.00793457,0.00978394,
2672,-0.00305176,0.0097168,
2674,0.0140381,0.00978394,
2676,0.0115967,0.00980225,
2678,-0.0152588,0.00990601,
2680,-0.00488281,0.00981445,
2682,-0.000610352,0.00968018,
2684,0.00366211,0.00967407,
2686,-0.00732422,0.00970459,
2688,-0.00671387,0.00973511,
2690,-0.0134277,0.00977173,
2692,0.0128174,0.00980225,
2694,0.00671387,0.00982056,
2696,-0.00366211,0.00978394,
2698,0.00793457,0.00978394,
2700,-0.00305176,0.00961914,
2702,0.00183105,0.00961914,
2704,-0.00915527,0.00969849,
2706,0,0.00950928,
2708,0.022583,0.00963745,
2710,-0.0189209,0.00980225,
2712,-0.0128174,0.00991821,
2714,0.00915527,0.00974731,
2716,0.00854492,0.00979614,
2718,0,0.00975952,
2720,-0.00183105,0.00964355,
2722,-0.0183105,0.00953369,
2724,0.00793457,0.00944214,
2726,-0.0152588,0.00930176,
2728,-0.0164795,0.00946045,
2730,0.00488281,0.00935669,
2732,-0.0140381,0.00944824,
2734,-0.0140381,0.00948486,
2736,-0.00976563,0.00945435,
2738,-0.000610352,0.00932617,
2740,-0.00732422,0.00922852,
2742,-0.00305176,0.00908203,
2744,-0.00427246,0.00903931,
2746,-0.00488281,0.00903931,
2748,0.0012207,0.00890503,
2750,-0.00732422,0.00887451,
2752,-0.00732422,0.00891724,
2754,-0.00488281,0.00889893,
2756,-0.00244141,0.0088501,
2758,0.00488281,0.00881958,
2760,-0.012207,0.00884399,
2762,-0.0115967,0.0088623,
2764,0.00732422,0.00878296,
2766,-0.00366211,0.00863647,
2768,-0.0115967,0.00864868,
2770,0.0109863,0.00874634,
2772,-0.000610352,0.0085022,
2774,0.00610352,0.00855713,
2776,0.0128174,0.00849609,
2778,-0.0146484,0.00858765,
2780,-0.00671387,0.00848999,
2782,0.0189209,0.00860596,
2784,0.0109863,0.00856934,
2786,-0.0299072,0.00883179,
2788,-0.00549316,0.00883179,
2790,0.00671387,0.00881958,
2792,-0.00793457,0.00877075,
2794,-0.012207,0.00880737,
2796,-0.0170898,0.00896606,
2798,0.0152588,0.00892944,
2800,-0.0201416,0.00884399,
2802,-0.0109863,0.00893555,
2804,0,0.0088501,
2806,-0.0164795,0.00893555,
2808,-0.00915527,0.00895996,
2810,-0.00671387,0.00890503,
2812,0.00793457,0.00895996,
2814,-0.0140381,0.0088501,
2816,-0.0177002,0.00881348,
2818,-0.010376,0.0088623,
2820,0.00549316,0.0088501,
2822,0.00305176,0.00880737,
2824,-0.000610352,0.00880737,
2826,-0.00976563,0.00875244,
2828,-0.00549316,0.00866089,
2830,-0.00671387,0.00872192,
2832,-0.00244141,0.00861816,
2834,0.00549316,0.00854492,
2836,0.00610352,0.00856323,
2838,-0.0177002,0.00861206,
2840,-0.00915527,0.00869141,
2842,0.0128174,0.0086853,
2844,-0.012207,0.00872803,
2846,-0.00915527,0.00878296,
2848,0.00183105,0.00877686,
2850,-0.00854492,0.00883789,
2852,-0.00427246,0.00888062,
2854,-0.00732422,0.0088562,
2856,-0.0109863,0.00887451,
2858,-0.00305176,0.00887451,
2860,-0.00610352,0.00870361,
2862,-0.00915527,0.00872192,
2864,0.00610352,0.0086792,
2866,-0.00305176,0.00862427,
2868,-0.0012207,0.00860596,
2870,-0.0012207,0.00853882,
2872,-0.00244141,0.00853271,
2874,0.0012207,0.00840454,
2876,0.00671387,0.00835571,
2878,-0.000610352,0.00820923,
2880,-0.0128174,0.00828857,
2882,-0.010376,0.00838623,
2884,-0.00183105,0.00836792,
2886,-0.00427246,0.0083374,
2888,0.00183105,0.00828857,
2890,-0.0170898,0.0083252,
2892,-0.0012207,0.00820923,
2894,-0.0115967,0.00825806,
2896,-0.000610352,0.00822754,
2898,0.00610352,0.00820923,
2900,0.0109863,0.00828857,
2902,-0.00549316,0.0083252,
2904,0.00915527,0.0083252,
2906,-0.00732422,0.00839844,
2908,-0.00976563,0.00827026,
2910,-0.0109863,0.00819092,
2912,0.0183105,0.00824585,
2914,-0.00732422,0.00822754,
2916,-0.0256348,0.00839844,
2918,-0.00488281,0.00844727,
2920,-0.00366211,0.00846558,
2922,-0.00488281,0.0083313,
2924,0.00244141,0.00827637,
2926,-0.010376,0.00822754,
2928,-0.00671387,0.00812988,
2930,0.00305176,0.00811157,
2932,-0.00488281,0.00802002,
2934,-0.00732422,0.00795288,
2936,-0.00549316,0.00791016,
2938,0.00244141,0.00792847,
2940,-0.00671387,0.00792236,
2942,-0.010376,0.00799561,
2944,-0.00854492,0.00803833,
2946,-0.00793457,0.00806885,
2948,-0.00732422,0.00812988,
2950,0.0012207,0.00806885,
2952,-0.000610352,0.00800171,
2954,0.000610352,0.00795898,
2956,-0.010376,0.00803833,
2958,-0.00915527,0.00808105,
2960,-0.00610352,0.00802002,
2962,0.00732422,0.00797729,
2964,-0.010376,0.00800781,
2966,-0.0164795,0.00813599,
2968,0.00305176,0.00805054,
2970,-0.00549316,0.00799561,
2972,-0.0140381,0.00812988,
2974,-0.00305176,0.00809937,
2976,-0.00732422,0.00804443,
2978,-0.00305176,0.00792847,
2980,-0.00671387,0.00792847,
2982,0.0115967,0.00785522,
2984,-0.0158691,0.00790405,
2986,-0.00427246,0.00764771,
2988,0.00183105,0.00761108,
2990,-0.00732422,0.00761719,
2992,0.00305176,0.00756836,
2994,0.00183105,0.0074646,
2996,-0.0164795,0.0074585,
2998,-0.00488281,0.00735474,
3000,-0.00366211,0.00718994,
3002,-0.00915527,0.00717163,
3004,-0.012207,0.0072937,
3006,-0.00549316,0.00718384,
3008,-0.00366211,0.00712891,
3010,-0.0109863,0.00717163,
3012,-0.00366211,0.00712891,
3014,0.00305176,0.00701904,
3016,0,0.00684204,
3018,-0.0146484,0.00688477,
3020,0,0.00682983,
3022,0.00549316,0.00685425,
3024,0.00366211,0.00688477,
3026,-0.00671387,0.00685425,
3028,0.00305176,0.00682983,
3030,-0.0201416,0.00696411,
3032,-0.00549316,0.00699463,
3034,0.00366211,0.00697632,
3036,-0.00671387,0.00698242,
3038,-0.00549316,0.00686035,
3040,-0.00854492,0.00685425,
3042,0.00183105,0.00674438,
3044,-0.00732422,0.00669556,
3046,-0.0128174,0.00673218,
3048,-0.00183105,0.00673218,
3050,-0.012207,0.0067688,
3052,0.0170898,0.00689697,
3054,0.00671387,0.00689087,
3056,-0.000610352,0.00678711,
3058,-0.00976563,0.00685425,
3060,0.000610352,0.00679932,
3062,0.0140381,0.00684814,
3064,0.00610352,0.00684814,
3066,0.00183105,0.00683594,
3068,-0.0128174,0.0069519,
3070,-0.0140381,0.00708008,
3072,-0.00610352,0.0071167,
3074,0.00244141,0.00712891,
3076,-0.00610352,0.0071228,
3078,-0.00305176,0.00714722,
3080,-0.00244141,0.00704346,
3082,-0.00854492,0.00702515,
3084,-0.00854492,0.00709229,
3086,0.00549316,0.00710449,
3088,-0.0128174,0.00721436,
3090,-0.0134277,0.00717773,
3092,0.00671387,0.00723267,
3094,-0.0219727,0.00733643,
3096,-0.00183105,0.00734863,
3098,-0.00915527,0.00737915,
3100,0.000610352,0.00727539,
3102,0.00183105,0.00723877,
3104,-0.00854492,0.00723267,
3106,-0.010376,0.00726318,
3108,0,0.00716553,
3110,-0.00244141,0.00708008,
3112,-0.00610352,0.00695801,
3114,-0.00793457,0.00696411,
3116,-0.00732422,0.00678101,
3118,0.0012207,0.00674438,
3120,-0.0146484,0.00685425,
3122,-0.020752,0.00701294,
3124,0.0268555,0.00725708,
3126,0.0274658,0.00742798,
3128,-0.0299072,0.00765991,
3130,-0.00183105,0.00764771,
3132,0.0134277,0.00773315,
3134,0.00610352,0.00772095,
3136,0,0.00766602,
3138,0.00366211,0.00767822,
3140,-0.0219727,0.00783081,
3142,-0.0115967,0.00784302,
3144,0,0.00775757,
3146,-0.00183105,0.00769653,
3148,0.020752,0.00783081,
3150,-0.022583,0.00804443,
3152,-0.0268555,0.00830688,
3154,0.00732422,0.00837402,
3156,0.00427246,0.00831299,
3158,-0.00488281,0.00827026,
3160,-0.022583,0.00843506,
3162,-0.00427246,0.00840454,
3164,-0.00488281,0.00834961,
3166,-0.010376,0.00828857,
3168,0.00244141,0.00828247,
3170,0.00549316,0.00828247,
3172,-0.00610352,0.00820313,
3174,0.00732422,0.00824585,
3176,-0.00488281,0.00822144,
3178,-0.00732422,0.00826416,
3180,-0.00244141,0.00822144,
3182,-0.00427246,0.00814819,
3184,-0.00915527,0.00808105,
3186,-0.0140381,0.00817871,
3188,0.00305176,0.00819092,
3190,-0.0140381,0.00825806,
3192,-0.00793457,0.00830688,
3194,-0.00793457,0.00836792,
3196,-0.00915527,0.00829468,
3198,0.00305176,0.00827637,
3200,0,0.00823975,
3202,-0.00549316,0.00820313,
3204,0.0115967,0.00819702,
3206,-0.0134277,0.00827637,
3208,-0.00244141,0.00826416,
3210,-0.000610352,0.0081604,
3212,-0.00793457,0.00820313,
3214,-0.0146484,0.00831909,
3216,-0.00793457,0.00839844,
3218,0.0274658,0.00852661,
3220,0.00793457,0.00860596,
3222,-0.0213623,0.00876465,
3224,-0.00244141,0.00875244,
3226,0.00915527,0.00877686,
3228,0.00793457,0.00882568,
3230,-0.00488281,0.0086731,
3232,-0.010376,0.00872192,
3234,-0.0195313,0.00888062,
3236,-0.0183105,0.00899658,
3238,-0.0128174,0.00906982,
3240,0.0012207,0.00899658,
3242,-0.00183105,0.00899658,
3244,-0.00793457,0.00900269,
3246,-0.00488281,0.00892334,
3248,0.00488281,0.00895386,
3250,-0.012207,0.00895386,
3252,-0.00793457,0.0088623,
3254,-0.0140381,0.00893555,
3256,-0.00366211,0.00896606,
3258,-0.010376,0.00897217,
3260,-0.00976563,0.00906372,
3262,-0.012207,0.00904541,
3264,0.000610352,0.00899048,
3266,0,0.00897217,
3268,-0.00610352,0.00890503,
3270,0.0158691,0.00892334,
3272,0.0262451,0.00912476,
3274,0.00549316,0.00915527,
3276,-0.0189209,0.00928345,
3278,-0.00732422,0.00932617,
3280,0.00305176,0.00933228,
3282,-0.0109863,0.00935669,
3284,-0.0231934,0.00950317,
3286,-0.0109863,0.00955811,
3288,-0.00183105,0.00944824,
3290,-0.0177002,0.00949097,
3292,-0.0244141,0.00966797,
3294,0.00366211,0.00948486,
3296,0.000610352,0.00947266,
3298,0.00488281,0.00942993,
3300,-0.00854492,0.00950928,
3302,-0.00671387,0.00955811,
3304,-0.0152588,0.00962524,
3306,-0.00549316,0.00957642,
3308,0.00305176,0.00960693,
3310,-0.00915527,0.00967407,
3312,0.0012207,0.00962524,
3314,0.00549316,0.00960083,
3316,-0.0109863,0.00963745,
3318,-0.00793457,0.00970459,
3320,0.0177002,0.00973511,
3322,-0.000610352,0.00953369,
3324,0.00610352,0.00932617,
3326,0.00305176,0.00908203,
3328,-0.000610352,0.00878906,
3330,0.00488281,0.00881958,
3332,0.00244141,0.00870972,
3334,-0.0183105,0.00883179,
3336,0.00427246,0.00887451,
3338,0.00549316,0.00889282,
3340,0.0134277,0.00880737,
3342,-0.0140381,0.00883179,
3344,-0.0238037,0.00906982,
3346,0.0164795,0.00921631,
3348,0.0201416,0.00921021,
3350,-0.0238037,0.00922241,
3352,-0.0183105,0.00913696,
3354,0.000610352,0.00906982,
3356,-0.0170898,0.009198,
3358,-0.00915527,0.00924072,
3360,-0.012207,0.00913696,
3362,-0.0109863,0.0092041,
3364,-0.00549316,0.00921021,
3366,-0.0134277,0.00924072,
3368,-0.00183105,0.00923462,
3370,-0.0140381,0.00932007,
3372,0.00305176,0.00928955,
3374,0.0109863,0.00932617,
3376,-0.0134277,0.00941162,
3378,-0.0201416,0.00953979,
3380,0.00305176,0.0095459,
3382,0.0012207,0.00951538,
3384,0.00549316,0.00947876,
3386,-0.0177002,0.00951538,
3388,0.00305176,0.00951538,
3390,0,0.009375,
3392,-0.0183105,0.00947876,
3394,0.00671387,0.00946655,
3396,0.0109863,0.00948486,
3398,0.0164795,0.00961914,
3400,-0.00427246,0.00966187,
3402,0.00488281,0.00965576,
3404,0.0177002,0.0097168,
3406,-0.00366211,0.00961914,
3408,0.03479,0.00994263,
3410,-0.032959,0.0102661,
3412,-0.0177002,0.0103638,
3414,0.00488281,0.0102661,
3416,-0.0109863,0.0102966,
3418,-0.0140381,0.0101624,
3420,-0.0506592,0.0105896,
3422,-0.0134277,0.0105103,
3424,0.0140381,0.0106262,
3426,-0.0177002,0.0107117,
3428,-0.0140381,0.0107727,
3430,-0.00427246,0.0107666,
3432,-0.012207,0.0107849,
3434,0.00305176,0.0106201,
3436,-0.00732422,0.0105103,
3438,-0.00671387,0.0104492,
3440,0.000610352,0.0104431,
3442,-0.0128174,0.010553,
3444,-0.0115967,0.0105896,
3446,0.00305176,0.0105713,
3448,0.00610352,0.0105835,
3450,-0.00549316,0.0105164,
3452,-0.00976563,0.0105347,
3454,0,0.0103943,
3456,-0.00549316,0.0104126,
3458,0.00366211,0.0103455,
3460,0.0012207,0.01026,
3462,0.00427246,0.0101807,
3464,-0.0134277,0.0103088,
3466,0,0.0103088,
3468,0.00244141,0.0102722,
3470,0.00915527,0.0102051,
3472,0.00915527,0.0100342,
3474,0.00671387,0.0100464,
3476,-0.0366211,0.0102234,
3478,-0.00183105,0.0101685,
3480,0.022583,0.0103638,
3482,-0.0262451,0.0105164,
3484,-0.0183105,0.0104675,
3486,0.0256348,0.010614,
3488,-0.0128174,0.0107239,
3490,-0.0201416,0.0107483,
3492,-0.00549316,0.0105591,
3494,0.00549316,0.0105774,
3496,-0.00549316,0.0106262,
3498,-0.0115967,0.0106934,
3500,-0.00305176,0.0106384,
3502,0.045166,0.0110229,
3504,0.0250244,0.0111206,
3506,-0.0415039,0.0114807,
3508,0.0195313,0.0116455,
3510,0.0244141,0.0117981,
3512,-0.00976563,0.0118835,
3514,-0.00183105,0.0118469,
3516,-0.00244141,0.0117615,
3518,-0.0311279,0.0119934,
3520,-0.0231934,0.0120483,
3522,-0.00610352,0.0121033,
3524,-0.0177002,0.0122192,
3526,0.00976563,0.0122864,
3528,-0.0012207,0.0122925,
3530,-0.022583,0.0124695,
3532,0.0268555,0.0127136,
3534,0.0146484,0.012677,
3536,-0.0604248,0.0132385,
3538,-0.00671387,0.0132507,
3540,0.00488281,0.0131653,
3542,-0.032959,0.0133545,
3544,-0.00854492,0.0132019,
3546,-0.00854492,0.0131226,
3548,-0.00244141,0.0129456,
3550,0.0134277,0.0128418,
3552,-0.0231934,0.0128906,
3554,0.00549316,0.0129395,
3556,0,0.0127686,
3558,-0.00183105,0.0126953,
3560,-0.0115967,0.0126892,
3562,-0.00549316,0.0126343,
3564,0.055542,0.0131348,
3566,-0.0177002,0.0131775,
3568,-0.0201416,0.0133606,
3570,-0.00244141,0.0132446,
3572,-0.00427246,0.0132568,
3574,0.0280762,0.0134277,
3576,-0.0219727,0.0135132,
3578,-0.0378418,0.0136902,
3580,-0.022583,0.0138855,
3582,-0.0311279,0.0141846,
3584,-0.0402832,0.0145325,
3586,-0.0109863,0.0144653,
3588,0.00671387,0.014502,
3590,-0.0128174,0.0146301,
3592,0.000610352,0.0144531,
3594,-0.00183105,0.0144043,
3596,0.00854492,0.0143799,
3598,0.0158691,0.0143738,
3600,-0.00549316,0.014386,
3602,0.0378418,0.0147156,
3604,-0.0262451,0.014801,
3606,0.0476074,0.0152405,
3608,0.00549316,0.0149475,
3610,0.0274658,0.0148926,
3612,-0.0012207,0.0147278,
3614,-0.0360107,0.0150391,
3616,-0.0238037,0.0151672,
3618,0.0012207,0.0150391,
3620,0.0158691,0.0146912,
3622,-0.0360107,0.014917,
3624,-0.032959,0.0151062,
3626,-0.03479,0.0152771,
3628,-0.0274658,0.0154114,
3630,-0.00427246,0.0154114,
3632,0.000610352,0.0152954,
3634,-0.0189209,0.0154541,
3636,-0.032959,0.0157104,
3638,-0.0012207,0.0156555,
3640,-0.0372314,0.0160217,
3642,0.00366211,0.0159302,
3644,-0.0158691,0.0159729,
3646,0.0152588,0.016095,
3648,0.00793457,0.0161133,
3650,0.0683594,0.0167419,
3652,0.0158691,0.016803,
3654,-0.0268555,0.0170715,
3656,-0.00549316,0.0170715,
3658,0.00732422,0.0171082,
3660,0.0140381,0.0172363,
3662,-0.0195313,0.0173889,
3664,-0.00976563,0.0173523,
3666,-0.0445557,0.0177979,
3668,-0.0335693,0.0181091,
3670,-0.0268555,0.0182861,
3672,0.00488281,0.0182434,
3674,-0.0012207,0.0181885,
3676,-0.03479,0.0181702,
3678,-0.0256348,0.0184082,
3680,-0.0317383,0.0184998,
3682,-0.0213623,0.0184509,
3684,-0.0115967,0.0183838,
3686,-0.0115967,0.0182434,
3688,-0.0201416,0.0183167,
3690,0.00244141,0.0181396,
3692,0.0152588,0.0182373,
3694,-0.00976563,0.01828,
3696,0.00732422,0.0182983,
3698,-0.0317383,0.0184998,
3700,-0.00732422,0.0185425,
3702,0.03479,0.0184387,
3704,0.00305176,0.018219,
3706,-0.0341797,0.0181458,
3708,0.0317383,0.0182678,
3710,0.020752,0.0182312,
3712,0.0244141,0.0183777,
3714,-0.0439453,0.0187988,
3716,0.0244141,0.0190186,
3718,0.0128174,0.0188354,
3720,0.0012207,0.0186157,
3722,-0.0231934,0.0187866,
3724,-0.00976563,0.0187073,
3726,0.0231934,0.0188416,
3728,0.0323486,0.0191528,
3730,0.00732422,0.0190002,
3732,0.00366211,0.0187683,
3734,0.0262451,0.0188843,
3736,-0.00976563,0.0183777,
3738,0.00427246,0.0183533,
3740,0.0268555,0.018573,
3742,-0.0439453,0.0186829,
3744,-0.0695801,0.0192932,
3746,-0.03479,0.0195557,
3748,-0.0201416,0.0197327,
3750,-0.055542,0.0201538,
3752,-0.0750732,0.0206726,
3754,-0.010376,0.0207214,
3756,-0.0390625,0.0211121,
3758,-0.0415039,0.0215088,
3760,0.00366211,0.0214294,
3762,-0.00427246,0.0214172,
3764,0.00183105,0.0208801,
3766,0.00732422,0.0207764,
3768,-0.00244141,0.0205994,
3770,-0.0183105,0.0207581,
3772,0.0134277,0.0208496,
3774,-0.00793457,0.0206482,
3776,0.00671387,0.0204956,
3778,-0.0427246,0.0205444,
3780,-0.0158691,0.0204773,
3782,-0.0012207,0.0201782,
3784,0.00244141,0.0197998,
3786,-0.0256348,0.0199463,
3788,0.0134277,0.0200134,
3790,0.0299072,0.0201843,
3792,0,0.0201782,
3794,0.00976563,0.0202576,
3796,-0.0396729,0.0205688,
3798,0.00793457,0.0204895,
3800,0.020752,0.0206421,
3802,0.00183105,0.020282,
3804,-0.03479,0.0203674,
3806,-0.0299072,0.0201904,
3808,-0.0311279,0.0204468,
3810,0.00244141,0.0201965,
3812,0.0219727,0.0204041,
3814,-0.0012207,0.0200562,
3816,0.00549316,0.019873,
3818,0.020752,0.0200684,
3820,0.0170898,0.0200806,
3822,-0.00366211,0.0197571,
3824,-0.00793457,0.0195068,
3826,-0.012207,0.019281,
3828,-0.0378418,0.0193848,
3830,-0.0299072,0.0196411,
3832,-0.0268555,0.0199036,
3834,-0.0720215,0.0204346,
3836,-0.0354004,0.020459,
3838,-0.0469971,0.0209167,
3840,-0.03479,0.0208923,
3842,-0.012207,0.0209778,
3844,0.00488281,0.0208679,
3846,-0.0231934,0.0209473,
3848,-0.0109863,0.0209778,
3850,0.00854492,0.0203796,
3852,0.00488281,0.0202698,
3854,0.0408936,0.0204102,
3856,0.00610352,0.0204163,
3858,-0.03479,0.0206909,
3860,-0.0115967,0.0206665,
3862,0.0378418,0.0208496,
3864,-0.00976563,0.0208496,
3866,0.00305176,0.0204346,
3868,0.0250244,0.0203491,
3870,-0.0457764,0.0205383,
3872,-0.0177002,0.0206665,
3874,0.0250244,0.0209045,
3876,-0.00671387,0.0206238,
3878,-0.0158691,0.0205261,
3880,-0.0152588,0.0203613,
3882,-0.0396729,0.0205444,
3884,0.0256348,0.0206848,
3886,-0.03479,0.0209167,
3888,-0.0445557,0.0211609,
3890,-0.0134277,0.0212708,
3892,-0.0109863,0.021228,
3894,0.0109863,0.0212402,
3896,-0.00915527,0.0212585,
3898,-0.0360107,0.0213013,
3900,0.00915527,0.0213196,
3902,0.00549316,0.0210266,
3904,-0.0152588,0.0211487,
3906,-0.00976563,0.0209045,
3908,0.0567627,0.0211548,
3910,-0.00732422,0.0210205,
3912,-0.0726318,0.0215027,
3914,0.00549316,0.0211182,
3916,-0.00305176,0.0209045,
3918,-0.00427246,0.0208191,
3920,-0.0134277,0.0209412,
3922,-0.0115967,0.0208252,
3924,0.0408936,0.0211365,
3926,0.0244141,0.0211487,
3928,-0.00854492,0.0209106,
3930,-0.0134277,0.0209717,
3932,0.0488281,0.0214233,
3934,0.0164795,0.0213257,
3936,-0.0335693,0.0215637,
3938,-0.0128174,0.0216492,
3940,-0.0183105,0.0215637,
3942,-0.0140381,0.0212646,
3944,-0.0299072,0.0208679,
3946,-0.0268555,0.0207886,
3948,-0.0146484,0.0207336,
3950,-0.0457764,0.020636,
3952,-0.0323486,0.0202087,
3954,-0.010376,0.0202087,
3956,-0.0335693,0.0201538,
3958,-0.0134277,0.019873,
3960,0.0183105,0.0200195,
3962,-0.0213623,0.0201904,
3964,-0.0170898,0.020343,
3966,0.00915527,0.0203613,
3968,0.012207,0.020459,
3970,-0.000610352,0.020282,
3972,-0.03479,0.0204956,
3974,-0.0183105,0.0205994,
3976,0.00854492,0.0206177,
3978,0.00610352,0.0202515,
3980,0.00793457,0.0201721,
3982,0.00183105,0.0201782,
3984,0,0.0201538,
3986,0.0109863,0.0200073,
3988,-0.00854492,0.0199585,
3990,0.0372314,0.0200317,
3992,-0.0378418,0.0204102,
3994,-0.0164795,0.0204773,
3996,-0.0115967,0.0201965,
3998,-0.0268555,0.0203857,
4000,-0.0201416,0.0203796,
4002,-0.0317383,0.0206787,
4004,0.0170898,0.0205017,
4006,0.0610352,0.020813,
4008,0.0183105,0.0206848,
4010,-0.0750732,0.0214111,
4012,-0.0158691,0.0213501,
4014,0.0506592,0.0218445,
4016,0.0280762,0.0220703,
4018,-0.0531006,0.0223938,
4020,-0.045166,0.0226746,
4022,-0.0476074,0.023114,
4024,-0.0262451,0.0232971,
4026,-0.020752,0.0233826,
4028,0.0213623,0.0232178,
4030,-0.0335693,0.0232544,
4032,-0.0201416,0.0231873,
4034,0.0195313,0.0226624,
4036,0.0292969,0.0226013,
4038,0.0201416,0.0223328,
4040,0.00366211,0.0220215,
4042,-0.00732422,0.0219727,
4044,0.00610352,0.0219849,
4046,0.0219727,0.0219727,
4048,-0.0292969,0.0221558,
4050,-0.0286865,0.0223572,
4052,0.0378418,0.0226868,
4054,-0.0317383,0.0225952,
4056,-0.0518799,0.023053,
4058,0.00244141,0.0227295,
4060,0.022583,0.0228394,
4062,-0.0164795,0.0226257,
4064,0.0256348,0.0227844,
4066,0.00366211,0.0227905,
4068,0.0170898,0.0227112,
4070,-0.0152588,0.022406,
4072,0.00244141,0.0222534,
4074,0.0140381,0.0221436,
4076,-0.00976563,0.0221741,
4078,-0.0286865,0.0223022,
4080,0.0158691,0.0223083,
4082,-0.0598145,0.0225098,
4084,-0.0469971,0.0227234,
4086,-0.010376,0.0224792,
4088,0.0219727,0.0222534,
4090,0.00549316,0.0221741,
4092,0.0177002,0.0222412,
4094,-0.0183105,0.0223145,
4096,-0.0170898,0.0223938,
4098,-0.00244141,0.0220581,
4100,0.0213623,0.0221802,
4102,-0.00427246,0.022168,
4104,-0.0292969,0.0223083,
4106,-0.0213623,0.0224243,
4108,-0.0177002,0.0220337,
4110,-0.0317383,0.0222778,
4112,0.000610352,0.0215576,
4114,0.0128174,0.0216309,
4116,-0.0366211,0.0219666,
4118,-0.00610352,0.0219849,
4120,0.00854492,0.021936,
4122,-0.00732422,0.0218933,
4124,-0.0219727,0.0217041,
4126,-0.00671387,0.0215271,
4128,0.00488281,0.0214905,
4130,-0.00305176,0.0213867,
4132,-0.00488281,0.0209473,
4134,-0.0109863,0.0208923,
4136,-0.00366211,0.0205933,
4138,0.0305176,0.0207703,
4140,-0.00244141,0.0206116,
4142,-0.0134277,0.0206055,
4144,-0.00549316,0.0203613,
4146,0.0445557,0.0205383,
4148,-0.0366211,0.0207581,
4150,0.0109863,0.0204102,
4152,-0.0164795,0.0202515,
4154,0.0109863,0.0202576,
4156,0.0463867,0.0203857,
4158,-0.0415039,0.0206665,
4160,0.0012207,0.0204956,
4162,0.00915527,0.0203735,
4164,0.0323486,0.0205261,
4166,0.00671387,0.0205017,
4168,0.0012207,0.0203918,
4170,-0.00732422,0.020459,
4172,0.00427246,0.0201538,
4174,-0.0152588,0.0201233,
4176,-0.0256348,0.0202942,
4178,0.0140381,0.0203735,
4180,-0.0201416,0.0204956,
4182,-0.00854492,0.0205627,
4184,0.0274658,0.0208374,
4186,0.0366211,0.0210938,
4188,0.0201416,0.0212097,
4190,-0.0128174,0.0209656,
4192,0.0115967,0.0207031,
4194,-0.0274658,0.020813,
4196,0.00793457,0.0207764,
4198,-0.0158691,0.0206665,
4200,-0.078125,0.0212463,
4202,-0.0738525,0.0216675,
4204,0.00732422,0.0215698,
4206,-0.0384521,0.021344,
4208,-0.03479,0.0215088,
4210,-0.0317383,0.0210754,
4212,0.00854492,0.0210022,
4214,0.00671387,0.0205627,
4216,0.00732422,0.0203552,
4218,0.0170898,0.0199951,
4220,-0.0238037,0.0197815,
4222,0.0177002,0.0194824,
4224,0.0195313,0.0194153,
4226,-0.00610352,0.0192688,
4228,-0.0012207,0.0190674,
4230,-0.00732422,0.0188049,
4232,-0.00732422,0.0186768,
4234,0.00610352,0.0185425,
4236,0.00976563,0.0183472,
4238,-0.03479,0.0184937,
4240,-0.0292969,0.01875,
4242,-0.00549316,0.0187317,
4244,-0.0152588,0.0188232,
4246,-0.0189209,0.0187927,
4248,0.03479,0.0188477,
4250,-0.0219727,0.0187805,
4252,-0.0256348,0.0186584,
4254,-0.0238037,0.0185791,
4256,0.0244141,0.0183044,
4258,0.00793457,0.0183594,
4260,-0.0402832,0.0185364,
4262,0.00183105,0.0183899,
4264,0.0134277,0.0182678,
4266,-0.010376,0.018335,
4268,0.010376,0.0182678,
4270,0.0115967,0.0182312,
4272,0.0146484,0.0183533,
4274,-0.0109863,0.0183228,
4276,0.0354004,0.0185791,
4278,-0.0256348,0.0185486,
4280,-0.0158691,0.0185486,
4282,-0.0585938,0.0185364,
4284,-0.0262451,0.0183289,
4286,0,0.0182251,
4288,0.0164795,0.0181702,
4290,-0.0476074,0.0185913,
4292,-0.0457764,0.0188721,
4294,0.0158691,0.0188477,
4296,0.00976563,0.0187744,
4298,0.00549316,0.0188049,
4300,-0.0250244,0.0188416,
4302,-0.00854492,0.0188843,
4304,0.0115967,0.0187073,
4306,0.010376,0.0185974,
4308,-0.0341797,0.0187622,
4310,0.00793457,0.0185242,
4312,0.0305176,0.0188232,
4314,0.0201416,0.0188965,
4316,0.00488281,0.0185791,
4318,-0.0177002,0.0186951,
4320,-0.0219727,0.0188293,
4322,0.0256348,0.0190125,
4324,0.0830078,0.0196228,
4326,-0.045166,0.0200073,
4328,-0.00976563,0.0200562,
4330,-0.0115967,0.0201416,
4332,-0.0524902,0.0206177,
4334,0.0134277,0.0206421,
4336,-0.0195313,0.0208008,
4338,-0.0543213,0.0210388,
4340,-0.0738525,0.0217529,
4342,-0.0238037,0.0218567,
4344,0.0250244,0.022052,
4346,-0.0012207,0.0216187,
4348,-0.0274658,0.0215271,
4350,0,0.0214172,
4352,0,0.0212524,
4354,-0.00671387,0.0212097,
4356,0.00488281,0.0207947,
4358,0.0115967,0.0204956,
4360,-0.0115967,0.0205994,
4362,0.00488281,0.0205566,
4364,0.0231934,0.0204651,
4366,0.0439453,0.0208374,
4368,-0.0134277,0.0209595,
4370,-0.0189209,0.0210754,
4372,0.010376,0.0211365,
4374,0.0262451,0.0212463,
4376,0.00427246,0.0210327,
4378,-0.0598145,0.0214905,
4380,-0.0299072,0.0215881,
4382,-0.0109863,0.0216125,
4384,-0.0177002,0.0215149,
4386,-0.012207,0.0212708,
4388,-0.0183105,0.0212524,
4390,-0.0146484,0.0212708,
4392,-0.00427246,0.0211975,
4394,0.0286865,0.0212097,
4396,0.0238037,0.0213684,
4398,-0.0268555,0.0214783,
4400,-0.00671387,0.0207642,
4402,0,0.0200256,
4404,-0.0158691,0.0201111,
4406,-0.0201416,0.019928,
4408,-0.0341797,0.0199219,
4410,-0.0292969,0.0198975,
4412,-0.0213623,0.0200256,
4414,0.00793457,0.0200378,
4416,0.00366211,0.0200012,
4418,-0.00549316,0.0198853,
4420,-0.00976563,0.0197449,
4422,-0.00183105,0.0195862,
4424,0.0360107,0.019751,
4426,-0.00366211,0.0197266,
4428,0.0421143,0.0201355,
4430,-0.0134277,0.0201965,
4432,0.00976563,0.0202209,
4434,0.0628662,0.0207886,
4436,-0.0268555,0.0209595,
4438,-0.0134277,0.0207458,
4440,0.0152588,0.0206055,
4442,-0.0109863,0.0206604,
4444,-0.0231934,0.0207397,
4446,-0.0531006,0.0210815,
4448,-0.03479,0.0210815,
4450,0.00549316,0.0209167,
4452,-0.0354004,0.0210144,
4454,-0.0201416,0.0209778,
4456,-0.0140381,0.020874,
4458,-0.0146484,0.0209412,
4460,-0.0256348,0.0207947,
4462,0.0183105,0.0209595,
4464,0.0268555,0.0210938,
4466,0.0323486,0.0213135,
4468,-0.0128174,0.0213379,
4470,0.00427246,0.0212646,
4472,0.0170898,0.0212891,
4474,0.00793457,0.0212585,
4476,-0.0012207,0.0209167,
4478,-0.0140381,0.0208008,
4480,0.00305176,0.0206726,
4482,-0.0567627,0.0206543,
4484,-0.0482178,0.020874,
4486,0.0213623,0.0210876,
4488,0.00854492,0.0210083,
4490,-0.0189209,0.0207214,
4492,-0.0592041,0.0208557,
4494,-0.032959,0.0210266,
4496,0.0335693,0.0212646,
4498,-0.0219727,0.0214294,
4500,-0.0189209,0.0213684,
4502,-0.0109863,0.0213928,
4504,0.0146484,0.0214233,
4506,0.0720215,0.0220398,
4508,-0.0317383,0.0220154,
4510,-0.00305176,0.0219666,
4512,-0.0012207,0.0216736,
4514,0.0299072,0.0217712,
4516,-0.0177002,0.0218994,
4518,0.012207,0.0218445,
4520,0.00488281,0.0216736,
4522,-0.0335693,0.0217529,
4524,-0.0372314,0.0212952,
4526,-0.0201416,0.0210449,
4528,0.00244141,0.0209717,
4530,-0.00976563,0.0209534,
4532,-0.0146484,0.020575,
4534,-0.00610352,0.0205017,
4536,-0.00671387,0.0203735,
4538,0,0.0198303,
4540,0.00488281,0.0191406,
4542,0.0115967,0.0190186,
4544,0.0250244,0.0190186,
4546,0.0115967,0.0191223,
4548,0.00183105,0.018866,
4550,-0.00915527,0.0189575,
4552,0.0201416,0.0191589,
4554,-0.0354004,0.0194458,
4556,-0.055542,0.0199524,
4558,-0.0231934,0.0200684,
4560,0.0250244,0.0202026,
4562,0.0244141,0.0203979,
4564,-0.0299072,0.0204651,
4566,-0.0201416,0.0202271,
4568,0.00732422,0.020166,
4570,0.000610352,0.0199829,
4572,-0.0177002,0.0200562,
4574,0.0286865,0.0200806,
4576,0.00305176,0.0200684,
4578,-0.000610352,0.0194763,
4580,-0.0274658,0.0194519,
4582,0.0195313,0.0195374,
4584,0.020752,0.0195679,
4586,-0.0164795,0.0196106,
4588,0.00183105,0.0194458,
4590,0.0268555,0.0195679,
4592,-0.00549316,0.0195801,
4594,0.00976563,0.0193909,
4596,-0.0012207,0.019165,
4598,-0.0415039,0.0193115,
4600,-0.0115967,0.0193604,
4602,0.0476074,0.0198364,
4604,0.0323486,0.0200012,
4606,-0.043335,0.0202332,
4608,-0.0354004,0.0202454,
4610,0.0158691,0.0201111,
4612,0.0134277,0.0200317,
4614,-0.0201416,0.0201538,
4616,-0.00244141,0.0201416,
4618,0.00549316,0.0201416,
4620,-0.00366211,0.0200806,
4622,-0.0292969,0.0203552,
4624,0.0201416,0.0201965,
4626,-0.0262451,0.0204224,
4628,-0.00427246,0.0200439,
4630,-0.0238037,0.0201477,
4632,-0.00793457,0.0201294,
4634,-0.0183105,0.0196838,
4636,-0.0183105,0.0195984,
4638,-0.0115967,0.0195801,
4640,-0.0140381,0.0195679,
4642,-0.0177002,0.019635,
4644,0.00793457,0.0194824,
4646,-0.00854492,0.0190369,
4648,-0.0311279,0.0190002,
4650,0.0109863,0.0190552,
4652,0.0317383,0.0190186,
4654,0.0158691,0.0189758,
4656,-0.00549316,0.0188904,
4658,0.0189209,0.0189331,
4660,0.0109863,0.0187866,
4662,0.00793457,0.0186829,
4664,0.000610352,0.0184204,
4666,-0.00793457,0.0181763,
4668,0.00915527,0.0181396,
4670,0.0170898,0.0182678,
4672,0.0140381,0.0182373,
4674,-0.0280762,0.0184387,
4676,0.00793457,0.0185059,
4678,0.0152588,0.0185181,
4680,-0.00671387,0.0185547,
4682,-0.0201416,0.0181885,
4684,-0.0244141,0.0179504,
4686,-0.0341797,0.0180786,
4688,-0.0189209,0.0181824,
4690,-0.0531006,0.0185242,
4692,-0.057373,0.0185059,
4694,0.0323486,0.0184998,
4696,0.0140381,0.0183044,
4698,-0.0305176,0.0183899,
4700,0.00610352,0.0182617,
4702,0,0.0181519,
4704,0.0170898,0.0181763,
4706,-0.0189209,0.0176453,
4708,0.0323486,0.0176514,
4710,0.00915527,0.0177124,
4712,-0.0213623,0.0179138,
4714,-0.0390625,0.0180054,
4716,-0.00427246,0.0178711,
4718,0.0292969,0.018042,
4720,-0.0390625,0.0183838,
4722,-0.00610352,0.0181091,
4724,-0.00976563,0.0178345,
4726,-0.00488281,0.0176819,
4728,0.00976563,0.0177551,
4730,0.020752,0.017865,
4732,-0.0012207,0.0177307,
4734,0.0311279,0.017981,
4736,-0.010376,0.0180176,
4738,-0.0012207,0.0180298,
4740,0.0286865,0.0182678,
4742,-0.00366211,0.0181885,
4744,-0.0164795,0.018103,
4746,-0.0164795,0.0181519,
4748,-0.0244141,0.0183777,
4750,-0.0177002,0.0184631,
4752,-0.00854492,0.0183472,
4754,0.0128174,0.0181213,
4756,-0.0256348,0.0178223,
4758,-0.0158691,0.017749,
4760,-0.0201416,0.0177002,
4762,-0.00488281,0.0175049,
4764,0.0427246,0.0176331,
4766,0.0128174,0.0175598,
4768,-0.0201416,0.017688,
4770,-0.032959,0.0180115,
4772,0.0219727,0.0180542,
4774,0.010376,0.0178711,
4776,-0.00915527,0.0179321,
4778,0.0012207,0.0179382,
4780,-0.000610352,0.0176697,
4782,0.00488281,0.0175232,
4784,0.0274658,0.0175903,
4786,-0.00244141,0.01745,
4788,0.0158691,0.0175903,
4790,0.00610352,0.0173828,
4792,-0.0140381,0.0174683,
4794,-0.00244141,0.017395,
4796,-0.057373,0.0179565,
4798,-0.0274658,0.0178162,
4800,0.0012207,0.0177124,
4802,-0.0354004,0.0175903,
4804,-0.0195313,0.0174622,
4806,0.0317383,0.0173462,
4808,-0.0140381,0.0171326,
4810,-0.0262451,0.0172363,
4812,0.0305176,0.0174072,
4814,-0.000610352,0.0172119,
4816,-0.0244141,0.0174316,
4818,-0.0244141,0.0176208,
4820,-0.022583,0.0178101,
4822,-0.0164795,0.0176819,
4824,0.0164795,0.0176453,
4826,-0.0476074,0.0178589,
4828,0.0115967,0.0179321,
4830,0.0244141,0.0179382,
4832,0.0518799,0.0183777,
4834,-0.0115967,0.0183105,
4836,-0.0518799,0.0186462,
4838,0.0244141,0.0187744,
4840,0.0195313,0.0188293,
4842,-0.0183105,0.0188354,
4844,-0.0152588,0.0189087,
4846,0.0274658,0.0190979,
4848,-0.0109863,0.0188965,
4850,-0.0256348,0.019043,
4852,0.0238037,0.0189636,
4854,0.0421143,0.0192261,
4856,0.0213623,0.0193848,
4858,-0.020752,0.0194031,
4860,-0.0244141,0.0195374,
4862,0.0140381,0.0195984,
4864,-0.0549316,0.0201416,
4866,-0.0146484,0.0202087,
4868,-0.0244141,0.0203613,
4870,-0.0164795,0.0203552,
4872,-0.0268555,0.0204834,
4874,0.0012207,0.0202148,
4876,-0.0164795,0.0203003,
4878,0.0445557,0.0205933,
4880,0.0195313,0.0207214,
4882,-0.00915527,0.0206116,
4884,0.012207,0.0204895,
4886,0.0115967,0.0202637,
4888,0.010376,0.0201782,
4890,-0.0115967,0.0197632,
4892,-0.010376,0.0192932,
4894,-0.0158691,0.0191284,
4896,-0.0292969,0.019281,
4898,-0.00305176,0.0190063,
4900,0.0360107,0.0193054,
4902,-0.0439453,0.0197449,
4904,-0.0250244,0.0198242,
4906,0.055542,0.0201904,
4908,0.0115967,0.0199829,
4910,-0.0598145,0.0204895,
4912,-0.0158691,0.0204346,
4914,0.0231934,0.0202759,
4916,-0.0134277,0.0203674,
4918,-0.0238037,0.0203125,
4920,-0.0561523,0.0204834,
4922,-0.00488281,0.0204712,
4924,-0.0262451,0.020636,
4926,0.00244141,0.0206116,
4928,0.0305176,0.0208191,
4930,0.0152588,0.0207642,
4932,-0.0262451,0.0210144,
4934,0.022583,0.020929,
4936,0.0146484,0.0209717,
4938,-0.00305176,0.02099,
4940,0.0134277,0.0208374,
4942,-0.0219727,0.0210205,
4944,-0.0250244,0.021106,
4946,-0.00488281,0.02099,
4948,-0.0408936,0.0211548,
4950,0.00488281,0.0210266,
4952,0.012207,0.0210632,
4954,-0.0280762,0.0212158,
4956,0.00671387,0.0210266,
4958,0.0299072,0.021167,
4960,-0.0219727,0.0211853,
4962,-0.0323486,0.02146,
4964,0.0152588,0.0211853,
4966,-0.012207,0.0211792,
4968,0.00244141,0.0210022,
4970,-0.00732422,0.0207458,
4972,-0.012207,0.0206482,
4974,0.020752,0.020752,
4976,0.022583,0.0208862,
4978,-0.010376,0.0209778,
4980,0.0518799,0.0214905,
4982,0.0250244,0.0216919,
4984,-0.0201416,0.0216187,
4986,-0.0299072,0.0218933,
4988,0.0152588,0.0218872,
4990,-0.0152588,0.0219788,
4992,-0.00183105,0.0218567,
4994,-0.0268555,0.0221008,
4996,-0.055542,0.0220825,
4998,0.012207,0.0219299,
5000,-0.00915527,0.0220093,
5002,-0.0109863,0.0217651,
5004,0.00549316,0.0216248,
5006,-0.00427246,0.0213501,
5008,-0.0140381,0.0213501,
5010,-0.00671387,0.0211548,
5012,-0.00915527,0.0209412,
5014,0.00915527,0.0210266,
5016,0.010376,0.0208862,
5018,-0.0311279,0.0209534,
5020,-0.0518799,0.0212463,
5022,-0.0427246,0.0215088,
5024,0.00793457,0.0214233,
5026,-0.0256348,0.0212036,
5028,-0.0231934,0.0213196,
5030,0,0.0210754,
5032,0.0286865,0.0208435,
5034,0.0134277,0.0208618,
5036,0.0189209,0.0205322,
5038,0.0256348,0.0205444,
5040,0.0634766,0.0209839,
5042,-0.0439453,0.0212402,
5044,0.00427246,0.0211304,
5046,0.0195313,0.021051,
5048,-0.00549316,0.0209961,
5050,-0.0360107,0.0210999,
5052,0.00305176,0.0208923,
5054,-0.0427246,0.0208984,
5056,-0.0128174,0.020813,
5058,0.0189209,0.0207947,
5060,-0.0183105,0.0207336,
5062,-0.022583,0.0208191,
5064,0.0311279,0.0205811,
5066,0.0115967,0.0205505,
5068,0.0201416,0.0205078,
5070,-0.0585938,0.020929,
5072,0.0158691,0.0208191,
5074,0.0305176,0.0211121,
5076,-0.00549316,0.0210022,
5078,-0.0604248,0.0211609,
5080,-0.0109863,0.0210754,
5082,0.00793457,0.0210632,
5084,-0.0213623,0.0211548,
5086,-0.022583,0.0212646,
5088,-0.010376,0.0212646,
5090,0.012207,0.0212708,
5092,0.00793457,0.0212463,
5094,-0.00610352,0.0211487,
5096,-0.0323486,0.0211792,
5098,0.0305176,0.0214539,
5100,0.0354004,0.0214478,
5102,-0.0262451,0.0212708,
5104,-0.00732422,0.0210938,
5106,-0.00915527,0.0206299,
5108,0.0402832,0.0209167,
5110,-0.0305176,0.0206238,
5112,-0.0463867,0.020929,
5114,0.00183105,0.0207153,
5116,-0.0250244,0.0208313,
5118,-0.00915527,0.0206848,
5120,0.00915527,0.0202148,
5122,-0.0219727,0.0203857,
5124,-0.0115967,0.0202393,
5126,-0.00183105,0.0202332,
5128,0.0128174,0.0200562,
5130,0.0292969,0.0201965,
5132,-0.0109863,0.0200439,
5134,-0.00793457,0.0198975,
5136,-0.00427246,0.0197937,
5138,-0.0189209,0.0199524,
5140,0.0341797,0.0201599,
5142,0.0164795,0.020105,
5144,-0.00976563,0.0199524,
5146,0.0115967,0.0200195,
5148,0.0128174,0.0197388,
5150,-0.03479,0.0200378,
5152,0.0189209,0.020105,
5154,0.00854492,0.0199097,
5156,-0.0152588,0.0199951,
5158,-0.0494385,0.0201904,
5160,-0.0305176,0.0202759,
5162,-0.0195313,0.0201477,
5164,-0.00915527,0.0200867,
5166,-0.00793457,0.0200439,
5168,-0.00183105,0.0200378,
5170,-0.022583,0.0201904,
5172,0.00305176,0.0200989,
5174,0.0445557,0.0203369,
5176,0.0109863,0.0202209,
5178,-0.0402832,0.02052,
5180,0.010376,0.020105,
5182,-0.0109863,0.0199646,
5184,-0.0250244,0.0200134,
5186,-0.0299072,0.0200134,
5188,-0.00976563,0.0199585,
5190,-0.0256348,0.0200623,
5192,-0.0445557,0.0204895,
5194,0.0189209,0.0204102,
5196,0.0366211,0.0202209,
5198,-0.0311279,0.0204102,
5200,-0.0164795,0.0204834,
5202,0.0354004,0.0207275,
5204,0.0170898,0.0208435,
5206,0.0158691,0.0209595,
5208,0.00305176,0.0208496,
5210,-0.0213623,0.0209961,
5212,0.00732422,0.0209778,
5214,0.00366211,0.0209229,
5216,-0.00915527,0.0209106,
5218,-0.0109863,0.0207092,
5220,-0.0457764,0.0206482,
5222,-0.0134277,0.0203552,
5224,0.0012207,0.0202881,
5226,-0.00793457,0.0201111,
5228,0.0115967,0.0199951,
5230,0.057373,0.0205688,
5232,-0.0311279,0.0205933,
5234,0.0140381,0.0205994,
5236,0.0378418,0.0207886,
5238,-0.0390625,0.0209229,
5240,0.0231934,0.02052,
5242,0.00488281,0.0201294,
5244,-0.0543213,0.0206299,
5246,-0.0494385,0.020929,
5248,-0.010376,0.0209778,
5250,0.0152588,0.0207703,
5252,0.0140381,0.0208801,
5254,-0.0274658,0.0207275,
5256,-0.0012207,0.0206116,
5258,0.0012207,0.0204346,
5260,-0.0500488,0.020752,
5262,-0.00488281,0.020575,
5264,0.00244141,0.0202881,
5266,-0.03479,0.02052,
5268,-0.00671387,0.0203857,
5270,0.00793457,0.0198792,
5272,-0.0213623,0.0199341,
5274,0.00854492,0.0197144,
5276,0.0305176,0.0199646,
5278,0.0128174,0.0194885,
5280,-0.012207,0.0195007,
5282,-0.0341797,0.0197632,
5284,0.000610352,0.0195557,
5286,-0.0195313,0.0195251,
5288,-0.0244141,0.0196655,
5290,0.00610352,0.0196045,
5292,-0.0152588,0.0196777,
5294,-0.0195313,0.019812,
5296,0.0354004,0.0198425,
5298,0.0531006,0.0200684,
5300,0.00427246,0.0197571,
5302,-0.0219727,0.0197144,
5304,0.0354004,0.0199951,
5306,0.00732422,0.0199768,
5308,-0.0238037,0.019812,
5310,0.0158691,0.0196655,
5312,-0.0128174,0.0193298,
5314,-0.0195313,0.0195068,
5316,-0.0311279,0.0195679,
5318,0.0134277,0.0196106,
5320,-0.0183105,0.0197021,
5322,-0.0262451,0.0197449,
5324,0.0183105,0.019812,
5326,-0.0408936,0.0202026,
5328,-0.0213623,0.0202881,
5330,0.0012207,0.0200073,
5332,-0.012207,0.0200195,
5334,-0.0268555,0.0202087,
5336,0.0341797,0.0205078,
5338,-0.0158691,0.0204773,
5340,0.0299072,0.0204346,
5342,0.0299072,0.0205688,
5344,-0.0299072,0.0207703,
5346,-0.0274658,0.020929,
5348,0.0335693,0.0211365,
5350,-0.00732422,0.0208618,
5352,-0.0250244,0.0209229,
5354,-0.0323486,0.0211609,
5356,0.043335,0.0214417,
5358,-0.00366211,0.0209839,
5360,-0.0177002,0.0208557,
5362,0.0268555,0.020929,
5364,0.0134277,0.0209717,
5366,-0.00244141,0.0209167,
5368,-0.0299072,0.0211975,
5370,-0.0164795,0.0211365,
5372,-0.0231934,0.0213379,
5374,-0.00671387,0.0209595,
5376,-0.0195313,0.0210449,
5378,-0.00427246,0.0206848,
5380,0.022583,0.0208069,
5382,-0.00488281,0.0207458,
5384,0.00854492,0.0205811,
5386,-0.00183105,0.0203003,
5388,-0.0268555,0.0204712,
5390,0.0262451,0.0204773,
5392,-0.0109863,0.0201416,
5394,-0.0408936,0.0203613,
5396,0.0671387,0.0206665,
5398,-0.0372314,0.0207275,
5400,-0.0378418,0.0209412,
5402,0.00488281,0.020636,
5404,0.0299072,0.0207642,
5406,0.00549316,0.0206604,
5408,-0.0390625,0.0210205,
5410,-0.055542,0.0213623,
5412,0.00305176,0.0213196,
5414,-0.0256348,0.0215393,
5416,-0.020752,0.0216553,
5418,0.0360107,0.0219055,
5420,0.0183105,0.0216309,
5422,-0.043335,0.0219299,
5424,0.000610352,0.0219238,
5426,0.0463867,0.0223083,
5428,-0.0231934,0.0224243,
5430,0.00549316,0.0219055,
5432,-0.00427246,0.021637,
5434,-0.00976563,0.0215942,
5436,-0.0372314,0.0215881,
5438,-0.00671387,0.0212646,
5440,-0.00915527,0.0211243,
5442,-0.0128174,0.0212036,
5444,0.0152588,0.020813,
5446,0.00366211,0.0203552,
5448,0.00854492,0.0203369,
5450,0.0360107,0.0205444,
5452,-0.00305176,0.0204346,
5454,-0.0286865,0.0204468,
5456,0.0292969,0.0207275,
5458,-0.0195313,0.0209106,
5460,-0.0335693,0.0207458,
5462,-0.00610352,0.0207581,
5464,-0.032959,0.0210632,
5466,-0.0195313,0.0209106,
5468,-0.0360107,0.0212036,
5470,-0.00610352,0.0211853,
5472,-0.0189209,0.0211609,
5474,-0.00732422,0.0211487,
5476,0.00366211,0.0208801,
5478,-0.00610352,0.020813,
5480,0.0115967,0.0208069,
5482,0.0537109,0.0210022,
5484,0.0183105,0.0211792,
5486,-0.043335,0.0214172,
5488,0.0170898,0.021344,
5490,0.0286865,0.0215698,
5492,0.00305176,0.0214478,
5494,0.0274658,0.0215271,
5496,-0.0463867,0.021637,
5498,-0.0231934,0.0213379,
5500,-0.0366211,0.0216614,
5502,-0.0134277,0.0215759,
5504,0.0213623,0.0214355,
5506,-0.0671387,0.0220337,
5508,-0.00366211,0.0218323,
5510,0.0109863,0.0217834,
5512,-0.0201416,0.0218567,
5514,-0.0317383,0.0219788,
5516,0.00854492,0.0217529,
5518,0.0299072,0.0219177,
5520,0.0421143,0.0221558,
5522,-0.00244141,0.0219177,
5524,-0.0299072,0.0220337,
5526,-0.0152588,0.0217773,
5528,0.0323486,0.0218872,
5530,-0.0219727,0.0220947,
5532,-0.0012207,0.0219849,
5534,-0.0415039,0.0221313,
5536,-0.0354004,0.0221436,
5538,-0.00976563,0.0220825,
5540,0.00366211,0.0218201,
5542,-0.0286865,0.0218079,
5544,-0.03479,0.0218567,
5546,0.0213623,0.0217957,
5548,-0.0140381,0.0216003,
5550,0.0128174,0.0216553,
5552,0.00244141,0.0214294,
5554,-0.0134277,0.0212402,
5556,-0.00854492,0.0208923,
5558,0.0201416,0.0210571,
5560,-0.0146484,0.0210266,
5562,0.0152588,0.0209106,
5564,-0.0183105,0.0209595,
5566,0.0354004,0.0212891,
5568,-0.0317383,0.0213074,
5570,0.0402832,0.0215454,
5572,-0.0360107,0.0216736,
5574,0.00427246,0.0216492,
5576,0.0140381,0.0215942,
5578,-0.012207,0.0216736,
5580,-0.0292969,0.0217407,
5582,-0.020752,0.0218994,
5584,-0.0140381,0.0219543,
5586,-0.0231934,0.022168,
5588,-0.0335693,0.0222351,
5590,-0.0158691,0.0221313,
5592,-0.0128174,0.0221497,
5594,-0.0109863,0.0218506,
5596,-0.0311279,0.0214905,
5598,0.0109863,0.021228,
5600,0.0115967,0.0209656,
5602,-0.0238037,0.0211548,
5604,0.000610352,0.0208618,
5606,0.03479,0.0211548,
5608,0.0488281,0.0212524,
5610,-0.0195313,0.0208923,
5612,-0.0640869,0.0215027,
5614,0.0616455,0.0218628,
5616,-0.0109863,0.0217651,
5618,-0.0335693,0.0217407,
5620,-0.00732422,0.0216309,
5622,-0.0115967,0.0213135,
5624,0,0.0213074,
5626,-0.0146484,0.02099,
5628,0.0170898,0.020929,
5630,-0.0201416,0.0210754,
5632,0.0506592,0.0215393,
5634,0.0372314,0.021814,
5636,-0.043335,0.021875,
5638,0.00244141,0.0218323,
5640,0.0109863,0.0218506,
5642,0.020752,0.0219299,
5644,-0.00488281,0.0218262,
5646,-0.0732422,0.022522,
5648,-0.0323486,0.02276,
5650,-0.00976563,0.0224976,
5652,-0.0201416,0.0226685,
5654,-0.010376,0.0224854,
5656,-0.0384521,0.0225769,
5658,-0.0408936,0.0227905,
5660,0.0292969,0.0227478,
5662,-0.00549316,0.0227417,
5664,0.0396729,0.0228088,
5666,-0.0170898,0.0227844,
5668,-0.0354004,0.0227783,
5670,-0.00427246,0.02276,
5672,0.00976563,0.0226685,
5674,-0.0317383,0.0229126,
5676,-0.0299072,0.023175,
5678,0.00976563,0.0232117,
5680,0.0140381,0.0232361,
5682,0.0335693,0.0230347,
5684,-0.0146484,0.022998,
5686,-0.0250244,0.0228149,
5688,0.0250244,0.0228943,
5690,-0.00244141,0.0226318,
5692,0.000610352,0.0226074,
5694,-0.0256348,0.0225891,
5696,-0.0579834,0.0227051,
5698,-0.0238037,0.0227112,
5700,-0.0170898,0.0225159,
5702,0.00732422,0.0224548,
5704,0.0286865,0.0225281,
5706,0.00732422,0.0219299,
5708,0.0256348,0.0221497,
5710,-0.0146484,0.0221863,
5712,-0.0372314,0.0223572,
5714,0.0390625,0.0224304,
5716,0.0280762,0.0226257,
5718,0.0128174,0.0224548,
5720,-0.0549316,0.022583,
5722,-0.0274658,0.0228333,
5724,0.0170898,0.0227051,
5726,-0.00427246,0.0225952,
5728,-0.00915527,0.0223633,
5730,-0.00732422,0.0222168,
5732,-0.012207,0.0223267,
5734,0.010376,0.0220154,
5736,0.00976563,0.021759,
5738,-0.00915527,0.0217529,
5740,0.00915527,0.0218079,
5742,0.0140381,0.0216614,
5744,0.000610352,0.0213196,
5746,-0.00976563,0.0212036,
5748,-0.0170898,0.0212341,
5750,0.00915527,0.0211975,
5752,-0.0170898,0.021344,
5754,-0.00732422,0.021283,
5756,-0.0299072,0.0214966,
5758,-0.0250244,0.0215454,
5760,0.00610352,0.02146,
5762,0.0244141,0.0215515,
5764,-0.0256348,0.0216248,
5766,-0.0378418,0.0216492,
5768,-0.000610352,0.0213379,
5770,0.00793457,0.0210144,
5772,-0.0286865,0.0209412,
5774,-0.012207,0.0210205,
5776,-0.0390625,0.0212708,
5778,-0.00427246,0.0211914,
5780,-0.00305176,0.020929,
5782,-0.0299072,0.0210205,
5784,-0.00793457,0.0209595,
5786,-0.0238037,0.0209656,
5788,-0.032959,0.0209595,
5790,0.0164795,0.0209656,
5792,0.00549316,0.0208923,
5794,-0.0140381,0.0209229,
5796,-0.0219727,0.0208313,
5798,0.00488281,0.0207703,
5800,0.0189209,0.0208435,
5802,0.00366211,0.0206421,
5804,0.00488281,0.0206848,
5806,0.0506592,0.0208435,
5808,-0.00427246,0.0203979,
5810,-0.00549316,0.0202576,
5812,0.0146484,0.0197632,
5814,0.0305176,0.0194519,
5816,0.00671387,0.0194092,
5818,0.00793457,0.0191528,
5820,-0.00427246,0.0191223,
5822,-0.0213623,0.01922,
5824,-0.0177002,0.019397,
5826,0.010376,0.0193542,
5828,0.0415039,0.0195984,
5830,-0.0305176,0.0197021,
5832,-0.0366211,0.0195618,
5834,0.0390625,0.0195801,
5836,0.0335693,0.0194824,
5838,-0.0469971,0.019928,
5840,-0.0256348,0.0200745,
5842,0.0128174,0.0199951,
5844,-0.00854492,0.0200317,
5846,0.00549316,0.0193542,
5848,0.00366211,0.0190674,
5850,-0.0854492,0.0198242,
5852,0.0152588,0.0197754,
5854,0.0598145,0.0202698,
5856,-0.0244141,0.0201294,
5858,-0.067749,0.0203979,
5860,0,0.020105,
5862,-0.010376,0.0201538,
5864,0.0128174,0.0198853,
5866,-0.0488281,0.0202026,
5868,-0.0537109,0.0203857,
5870,0.020752,0.0205505,
5872,0.03479,0.0208008,
5874,-0.0140381,0.0206238,
5876,-0.0408936,0.0207336,
5878,-0.0238037,0.020874,
5880,0.0299072,0.0210327,
5882,0,0.020697,
5884,-0.032959,0.0208801,
5886,-0.0012207,0.0206421,
5888,-0.0402832,0.0207947,
5890,-0.0128174,0.0208984,
5892,0.00549316,0.0209473,
5894,-0.0360107,0.021051,
5896,0.0152588,0.0206238,
5898,0.00305176,0.0204163,
5900,0.0201416,0.0204468,
5902,-0.0292969,0.0206665,
5904,-0.00732422,0.0204529,
5906,0.00976563,0.0204773,
5908,0.0109863,0.0203308,
5910,0.00610352,0.0202454,
5912,-0.0317383,0.0201904,
5914,0.00305176,0.0198303,
5916,-0.00366211,0.0195862,
5918,-0.0189209,0.0196472,
5920,0.00244141,0.0191223,
5922,-0.0115967,0.0189636,
5924,-0.0189209,0.0189819,
5926,-0.0152588,0.0190918,
5928,0.00915527,0.0190918,
5930,-0.00854492,0.019104,
5932,0.00549316,0.0190369,
5934,-0.000610352,0.0189392,
5936,-0.0158691,0.0190002,
5938,-0.00549316,0.0189636,
5940,0.0012207,0.0188843,
5942,-0.00671387,0.018811,
5944,-0.0146484,0.0189514,
5946,-0.0268555,0.0191223,
5948,-0.0109863,0.0190613,
5950,-0.00488281,0.0190186,
5952,0.00183105,0.018866,
5954,0,0.0187927,
5956,0.00488281,0.0185425,
5958,0.00732422,0.0183655,
5960,-0.0128174,0.0184326,
5962,0.0128174,0.0183167,
5964,-0.00488281,0.0181091,
5966,0.0524902,0.0182556,
5968,-0.0177002,0.0184265,
5970,-0.0421143,0.0187683,
5972,0.0158691,0.0186401,
5974,0.0280762,0.0187988,
5976,-0.0213623,0.0186218,
5978,-0.0183105,0.0187622,
5980,-0.00488281,0.0187805,
5982,-0.0262451,0.0187439,
5984,-0.0213623,0.0188782,
5986,-0.00610352,0.0187012,
5988,-0.0115967,0.0184875,
5990,-0.00915527,0.0184143,
5992,-0.00732422,0.0184326,
5994,-0.0262451,0.0185547,
5996,0.000610352,0.0183411,
5998,0.0128174,0.0184204,
6000,-0.0195313,0.0184265,
6002,-0.00244141,0.0184143,
6004,0.0134277,0.0184998,
6006,-0.00976563,0.0180908,
6008,-0.00305176,0.0180786,
6010,-0.0012207,0.0180359,
6012,-0.00854492,0.0179749,
6014,0.00915527,0.0177612,
6016,-0.0317383,0.0180115,
6018,-0.012207,0.0180542,
6020,-0.00427246,0.0180542,
6022,-0.00427246,0.0178833,
6024,-0.00488281,0.0177551,
6026,-0.0140381,0.0177917,
6028,-0.0109863,0.0174866,
6030,-0.00305176,0.0172119,
6032,-0.0012207,0.0168579,
6034,0.0128174,0.0165955,
6036,-0.00427246,0.0163025,
6038,-0.0012207,0.0158447,
6040,0.00183105,0.0156067,
6042,-0.010376,0.0155823,
6044,-0.00610352,0.0155579,
6046,0.0457764,0.0159607,
6048,0.0219727,0.0161438,
6050,0.000610352,0.0152954,
6052,-0.0219727,0.0153625,
6054,0.0244141,0.0150085,
6056,0.0244141,0.0150085,
6058,-0.00854492,0.0144165,
6060,-0.0482178,0.0148987,
6062,-0.00915527,0.0148865,
6064,-0.00549316,0.0148132,
6066,-0.0305176,0.0146301,
6068,-0.045166,0.0145447,
6070,0.0109863,0.014447,
6072,0.00793457,0.0141785,
6074,-0.00305176,0.0140686,
6076,-0.0292969,0.0139526,
6078,0.0109863,0.0138245,
6080,0.0115967,0.0136414,
6082,-0.020752,0.0138489,
6084,-0.0335693,0.013855,
6086,-0.00610352,0.0139038,
6088,-0.00488281,0.0135498,
6090,-0.0262451,0.0136841,
6092,-0.00183105,0.0136475,
6094,-0.0115967,0.0134033,
6096,0.0286865,0.0135376,
6098,0,0.0135071,
6100,-0.010376,0.0134094,
6102,0.0115967,0.0132324,
6104,0.020752,0.0133667,
6106,0.0177002,0.013446,
6108,0.0134277,0.0134705,
6110,-0.0354004,0.0137634,
6112,-0.000610352,0.0134521,
6114,-0.010376,0.0135254,
6116,-0.0183105,0.0136719,
6118,0.0128174,0.0136108,
6120,-0.00244141,0.0136108,
6122,-0.0012207,0.0135071,
6124,-0.0396729,0.0137146,
6126,-0.000610352,0.0135681,
6128,0.0152588,0.0136292,
6130,-0.00732422,0.0136169,
6132,-0.0335693,0.0138977,
6134,-0.0195313,0.0140869,
6136,0.00366211,0.0139648,
6138,-0.0250244,0.0141602,
6140,-0.0128174,0.0142761,
6142,-0.00305176,0.0142395,
6144,0.0183105,0.0142761,
6146,-0.00427246,0.0140503,
6148,-0.0189209,0.0141296,
6150,0.00488281,0.0141296,
6152,0.000610352,0.0141174,
6154,-0.00244141,0.0141418,
6156,0.00366211,0.0141296,
6158,0.00549316,0.0141113,
6160,-0.00976563,0.0140808,
6162,0.020752,0.0141602,
6164,-0.00366211,0.0141479,
6166,0.00183105,0.0136414,
6168,-0.0146484,0.0136108,
6170,-0.012207,0.0133118,
6172,-0.0170898,0.013324,
6174,-0.0152588,0.0131958,
6176,-0.00549316,0.0130371,
6178,-0.0360107,0.0132141,
6180,0.0146484,0.0133118,
6182,0,0.0130493,
6184,0.00305176,0.0128662,
6186,-0.00671387,0.0128723,
6188,0.0274658,0.013031,
6190,-0.0128174,0.0130676,
6192,-0.0219727,0.0132141,
6194,0.010376,0.0130554,
6196,-0.0012207,0.0130615,
6198,0.020752,0.0131409,
6200,-0.0195313,0.0131409,
6202,0.0158691,0.0132751,
6204,-0.020752,0.0133484,
6206,-0.00976563,0.0133484,
6208,0.0354004,0.0136719,
6210,-0.000610352,0.0136658,
6212,-0.0213623,0.0137939,
6214,-0.022583,0.0139282,
6216,0.00244141,0.0136353,
6218,0.0183105,0.0136963,
6220,0.00549316,0.0137085,
6222,-0.0317383,0.0139832,
6224,-0.0219727,0.0141541,
6226,-0.0134277,0.0141479,
6228,-0.00671387,0.0141052,
6230,-0.010376,0.0141785,
6232,-0.0250244,0.0144165,
6234,-0.0183105,0.0144714,
6236,-0.022583,0.0146545,
6238,-0.0201416,0.0148437,
6240,0.00305176,0.014856,
6242,0.0140381,0.0148926,
6244,-0.0146484,0.014978,
6246,-0.0219727,0.01474,
6248,0.00549316,0.0145752,
6250,0.00976563,0.0146667,
6252,-0.00976563,0.0145447,
6254,-0.00854492,0.014386,
6256,0.00305176,0.0141724,
6258,-0.00183105,0.0141052,
6260,-0.00427246,0.0136658,
6262,0.0134277,0.0137085,
6264,0.032959,0.0139832,
6266,-0.00671387,0.0137451,
6268,-0.0408936,0.0137024,
6270,0.0421143,0.0140137,
6272,-0.00305176,0.0139648,
6274,-0.0134277,0.0140686,
6276,-0.0189209,0.0139648,
6278,0.00183105,0.0138733,
6280,-0.0305176,0.0140625,
6282,-0.00732422,0.0139282,
6284,0.0372314,0.0139648,
6286,-0.0177002,0.0140808,
6288,-0.00976563,0.0141296,
6290,0.010376,0.0139709,
6292,0.000610352,0.0139587,
6294,0.00427246,0.0138855,
6296,-0.0183105,0.0137817,
6298,0,0.0137817,
6300,-0.0177002,0.013855,
6302,-0.0146484,0.0138855,
6304,-0.010376,0.0137817,
6306,0.0250244,0.013855,
6308,0.0140381,0.0138611,
6310,-0.0256348,0.0137634,
6312,-0.00854492,0.0138428,
6314,-0.00549316,0.0137939,
6316,0.022583,0.0138367,
6318,0.0311279,0.0140198,
6320,-0.0317383,0.0143127,
6322,-0.0183105,0.0144836,
6324,0.0177002,0.0142639,
6326,-0.0231934,0.0144897,
6328,0,0.0143372,
6330,0.00183105,0.0142822,
6332,-0.0177002,0.0141235,
6334,-0.0189209,0.0141174,
6336,-0.0183105,0.0142639,
6338,-0.00793457,0.014093,
6340,0.00671387,0.014032,
6342,0,0.0140015,
6344,-0.00427246,0.0138611,
6346,-0.020752,0.0140259,
6348,0.00549316,0.0138916,
6350,0.00976563,0.0139404,
6352,-0.00915527,0.0140259,
6354,0.000610352,0.0140076,
6356,-0.00854492,0.0140564,
6358,-0.00488281,0.0140503,
6360,-0.0012207,0.0139648,
6362,-0.00305176,0.0137878,
6364,0,0.0137512,
6366,0.00854492,0.0138184,
6368,-0.0140381,0.0138123,
6370,-0.00976563,0.0137878,
6372,-0.0140381,0.0137573,
6374,0.00793457,0.0136841,
6376,0.00305176,0.0136597,
6378,0.00732422,0.0133728,
6380,0.000610352,0.0132324,
6382,-0.020752,0.0134399,
6384,-0.00671387,0.0134766,
6386,-0.00183105,0.0134277,
6388,0.00671387,0.0132202,
6390,-0.0183105,0.0132751,
6392,-0.0152588,0.013208,
6394,-0.0115967,0.0132202,
6396,-0.00183105,0.0132263,
6398,-0.0012207,0.013031,
6400,0.00305176,0.0128662,
6402,0.0244141,0.0129517,
6404,-0.000610352,0.0127502,
6406,0.00488281,0.0127014,
6408,0.00671387,0.0124146,
6410,0.00549316,0.0124634,
6412,0.0268555,0.0125183,
6414,-0.00854492,0.0123779,
6416,-0.0115967,0.0124695,
6418,0.00915527,0.0123779,
6420,0.0213623,0.0125366,
6422,-0.0354004,0.0125732,
6424,-0.00549316,0.0124084,
6426,-0.0109863,0.012384,
6428,-0.0146484,0.0124634,
6430,-0.0109863,0.0124695,
6432,-0.0354004,0.0125732,
6434,-0.0170898,0.012561,
6436,-0.00366211,0.0123718,
6438,-0.0152588,0.012323,
6440,-0.00793457,0.0123718,
6442,-0.0134277,0.0123657,
6444,-0.00366211,0.0122559,
6446,0.0140381,0.0121765,
6448,-0.00793457,0.0122009,
6450,-0.00305176,0.0121338,
6452,0,0.0120361,
6454,-0.00488281,0.0119995,
6456,0.00549316,0.0120239,
6458,-0.0109863,0.0121155,
6460,-0.000610352,0.0120789,
6462,-0.0109863,0.0120544,
6464,0.00244141,0.0117493,
6466,-0.00183105,0.0117004,
6468,-0.00549316,0.0113464,
6470,-0.00671387,0.0109924,
6472,-0.00183105,0.0109802,
6474,0.0286865,0.0111328,
6476,-0.00915527,0.0110352,
6478,-0.00488281,0.0110657,
6480,0,0.0107605,
6482,-0.022583,0.0109131,
6484,-0.00610352,0.0106018,
6486,-0.00183105,0.0104431,
6488,-0.0256348,0.0106018,
6490,0.00244141,0.0105225,
6492,0.0128174,0.0106445,
6494,-0.020752,0.0108093,
6496,0.0134277,0.0107605,
6498,0.0231934,0.0109924,
6500,-0.00976563,0.0109131,
6502,0.0012207,0.0107788,
6504,0.0183105,0.0108582,
6506,-0.0158691,0.0107666,
6508,-0.0146484,0.0107727,
6510,-0.012207,0.0106384,
6512,-0.012207,0.010675,
6514,0.00183105,0.0106384,
6516,-0.00244141,0.010437,
6518,0.0012207,0.0101379,
6520,-0.0170898,0.00999146,
6522,-0.0170898,0.00997925,
6524,0.00183105,0.00982056,
6526,0.00854492,0.00967407,
6528,-0.0268555,0.00994263,
6530,0.0146484,0.0100708,
6532,0.00183105,0.00991211,
6534,-0.0256348,0.00997925,
6536,-0.00183105,0.00981445,
6538,0.0146484,0.00988159,
6540,-0.00244141,0.00983887,
6542,-0.00610352,0.0098999,
6544,-0.000610352,0.00986328,
6546,-0.012207,0.00977783,
6548,0.0012207,0.00973511,
6550,-0.0134277,0.00977173,
6552,0.0109863,0.00979004,
6554,0.000610352,0.00979004,
6556,-0.00610352,0.00976563,
6558,-0.0012207,0.009729,
6560,0.00854492,0.00980225,
6562,-0.0115967,0.0098877,
6564,0.00427246,0.00993042,
6566,-0.012207,0.00996704,
6568,-0.00488281,0.00987549,
6570,0.00793457,0.00985718,
6572,0.00793457,0.00979614,
6574,0.00854492,0.00980225,
6576,-0.00793457,0.00985107,
6578,-0.00671387,0.00984497,
6580,0.0128174,0.00996704,
6582,0.0183105,0.00994263,
6584,0.0128174,0.0100037,
6586,-0.045166,0.010437,
6588,-0.0183105,0.010553,
6590,0.0146484,0.0105164,
6592,-0.010376,0.0104675,
6594,0.00244141,0.010376,
6596,-0.0396729,0.0107544,
6598,-0.00366211,0.0107788,
6600,0.010376,0.0108521,
6602,-0.00976563,0.0107056,
6604,-0.0213623,0.0109131,
6606,0.00793457,0.0109436,
6608,-0.00671387,0.0109436,
6610,-0.0146484,0.0110352,
6612,-0.00305176,0.0107971,
6614,-0.00915527,0.0108032,
6616,-0.0213623,0.0109009,
6618,-0.00305176,0.0108398,
6620,-0.0012207,0.0106384,
6622,-0.00427246,0.0103271,
6624,0,0.0102722,
6626,-0.0012207,0.0101746,
6628,0.000610352,0.0100342,
6630,0.00671387,0.00999146,
6632,0,0.00963745,
6634,-0.00244141,0.00949097,
6636,-0.00610352,0.00951538,
6638,-0.00366211,0.00939941,
6640,-0.00427246,0.00936279,
6642,-0.0195313,0.00942383,
6644,0.0012207,0.00939941,
6646,0,0.00925903,
6648,-0.0128174,0.00930786,
6650,0.000610352,0.00928345,
6652,0.00915527,0.009375,
6654,-0.00854492,0.00941162,
6656,-0.0201416,0.00955811,
6658,0.0402832,0.00985107,
6660,0.0158691,0.0100037,
6662,0.000610352,0.0098999,
6664,-0.0140381,0.0100159,
6666,0.00549316,0.0100525,
6668,-0.0128174,0.0101257,
6670,0.00610352,0.0101196,
6672,0,0.0101013,
6674,-0.0415039,0.0102295,
6676,-0.0238037,0.010376,
6678,-0.010376,0.0104309,
6680,-0.00976563,0.0105286,
6682,-0.020752,0.0105103,
6684,-0.00244141,0.0104736,
6686,-0.0115967,0.0105713,
6688,-0.0134277,0.0104492,
6690,0.0128174,0.010553,
6692,-0.00671387,0.0104919,
6694,-0.00915527,0.010376,
6696,-0.00244141,0.0102661,
6698,-0.0115967,0.0101501,
6700,0.020752,0.01026,
6702,0.00427246,0.0102905,
6704,-0.00183105,0.0101257,
6706,0.00366211,0.0100037,
6708,0.0170898,0.0100281,
6710,-0.0146484,0.0100525,
6712,-0.0164795,0.0100952,
6714,0.00366211,0.0101135,
6716,-0.0231934,0.010321,
6718,-0.0164795,0.0104736,
6720,-0.0140381,0.0104431,
6722,-0.020752,0.0104797,
6724,-0.0115967,0.0105774,
6726,0.00976563,0.0105896,
6728,0.00610352,0.0103821,
6730,-0.00366211,0.0102722,
6732,0.0152588,0.0104065,
6734,0.0134277,0.0102844,
6736,-0.00854492,0.0103516,
6738,0.0231934,0.010437,
6740,-0.00610352,0.0104736,
6742,-0.0354004,0.0107666,
6744,0,0.0107605,
6746,-0.00183105,0.0106567,
6748,-0.0158691,0.0108032,
6750,-0.0134277,0.0108032,
6752,-0.00610352,0.0107544,
6754,-0.00610352,0.0108093,
6756,-0.00671387,0.0108154,
6758,-0.0170898,0.0109741,
6760,0.0012207,0.0109009,
6762,0,0.0107849,
6764,-0.00793457,0.0108215,
6766,-0.00976563,0.0107971,
6768,-0.00610352,0.0108093,
6770,0,0.01073,
6772,0.00427246,0.0106934,
6774,0.0250244,0.0108582,
6776,-0.00305176,0.0108093,
6778,-0.00854492,0.0108276,
6780,0.0189209,0.0108887,
6782,-0.00915527,0.0107971,
6784,-0.0140381,0.0108093,
6786,-0.00854492,0.0104431,
6788,-0.020752,0.0104675,
6790,-0.00915527,0.0104126,
6792,-0.032959,0.0106384,
6794,-0.0164795,0.0107788,
6796,0.00305176,0.0104126,
6798,0.00915527,0.0104675,
6800,-0.0177002,0.0105408,
6802,0.0109863,0.010553,
6804,0.00183105,0.0103577,
6806,-0.00366211,0.0103149,
6808,-0.00305176,0.0102783,
6810,-0.00427246,0.0101746,
6812,-0.0213623,0.0103577,
6814,-0.0146484,0.0104126,
6816,-0.0299072,0.010498,
6818,0.000610352,0.0104736,
6820,0,0.0104614,
6822,-0.010376,0.0105225,
6824,-0.00183105,0.0105408,
6826,0.0201416,0.01073,
6828,0.0140381,0.0108643,
6830,-0.010376,0.0109009,
6832,0.00305176,0.0109314,
6834,-0.0134277,0.0110413,
6836,0.0012207,0.0109924,
6838,-0.010376,0.0110596,
6840,-0.0158691,0.0111755,
6842,-0.0213623,0.0111938,
6844,-0.00183105,0.0112,
6846,-0.0115967,0.0113159,
6848,-0.00976563,0.0112854,
6850,0.0213623,0.0114929,
6852,-0.0158691,0.0115601,
6854,0,0.0114746,
6856,-0.0177002,0.0114502,
6858,0.00488281,0.0110962,
6860,-0.00610352,0.0109985,
6862,-0.0183105,0.0111755,
6864,-0.00793457,0.0111145,
6866,-0.00488281,0.0111084,
6868,0.00183105,0.0109985,
6870,-0.0177002,0.0111145,
6872,-0.0189209,0.0113037,
6874,0.00671387,0.0109558,
6876,-0.00244141,0.0107422,
6878,-0.0164795,0.0108032,
6880,-0.012207,0.0108276,
6882,-0.0140381,0.0107605,
6884,-0.0115967,0.0108521,
6886,-0.010376,0.0108398,
6888,-0.00976563,0.0108032,
6890,0.00732422,0.0107483,
6892,0.00549316,0.0107361,
6894,-0.0128174,0.0107727,
6896,-0.0012207,0.0107605,
6898,-0.0170898,0.0108154,
6900,0.0286865,0.0108948,
6902,-0.0134277,0.0109863,
6904,0.00366211,0.0110046,
6906,-0.0219727,0.0111877,
6908,-0.00366211,0.0110535,
6910,-0.0115967,0.0110229,
6912,-0.0128174,0.0109863,
6914,-0.00671387,0.0110168,
6916,0.0213623,0.0109985,
6918,0.00244141,0.0108582,
6920,-0.0201416,0.0109192,
6922,0.0183105,0.0108948,
6924,0.0427246,0.0112061,
6926,-0.0140381,0.0112488,
6928,-0.0140381,0.0113281,
6930,0.00488281,0.0113403,
6932,-0.0140381,0.0113281,
6934,0.00732422,0.0112671,
6936,-0.00305176,0.0112122,
6938,-0.0354004,0.0113342,
6940,-0.00915527,0.0113647,
6942,0.0262451,0.0112732,
6944,-0.00610352,0.0113342,
6946,0.00915527,0.0114075,
6948,-0.0012207,0.011261,
6950,0.00610352,0.0111877,
6952,-0.00305176,0.0111572,
6954,0.0164795,0.011261,
6956,-0.0158691,0.0113525,
6958,-0.00976563,0.0112793,
6960,0,0.0112671,
6962,-0.0109863,0.011377,
6964,-0.00793457,0.011377,
6966,-0.00671387,0.0113464,
6968,-0.010376,0.0113892,
6970,-0.00244141,0.0114136,
6972,-0.00549316,0.0114258,
6974,-0.0012207,0.0111877,
6976,-0.00305176,0.0111877,
6978,-0.00244141,0.0111267,
6980,-0.00671387,0.0110046,
6982,0.00732422,0.0109863,
6984,0.0213623,0.0110596,
6986,-0.0152588,0.0111267,
6988,-0.00915527,0.0110107,
6990,0.000610352,0.0109253,
6992,-0.0128174,0.0107239,
6994,-0.00488281,0.0106079,
6996,-0.00305176,0.0106079,
6998,-0.0140381,0.0106567,
7000,-0.00732422,0.010553,
7002,0.0280762,0.0107239,
7004,-0.00610352,0.0107666,
7006,-0.010376,0.0108337,
7008,0.0012207,0.0108154,
7010,0.00854492,0.0108582,
7012,0.00305176,0.010675,
7014,-0.0195313,0.0107239,
7016,-0.0195313,0.0106201,
7018,0.000610352,0.0106201,
7020,-0.00915527,0.0107117,
7022,-0.0201416,0.0108093,
7024,-0.00671387,0.0108582,
7026,-0.00549316,0.0107117,
7028,0.000610352,0.0105774,
7030,0.00183105,0.0104919,
7032,-0.00488281,0.0105103,
7034,-0.0158691,0.0105347,
7036,0.00976563,0.0106201,
7038,-0.0109863,0.0106262,
7040,0.00854492,0.010553,
7042,0.00793457,0.0104187,
7044,-0.00671387,0.0104675,
7046,-0.0115967,0.0104675,
7048,-0.00366211,0.0104065,
7050,0.00366211,0.0102295,
7052,-0.00549316,0.0101257,
7054,-0.010376,0.0102295,
7056,-0.0109863,0.0101624,
7058,0.00671387,0.0101807,
7060,-0.0238037,0.0103577,
7062,0.0109863,0.0102844,
7064,-0.000610352,0.0102112,
7066,0.0268555,0.0104309,
7068,-0.0201416,0.010614,
7070,-0.0292969,0.01073,
7072,0.00915527,0.0106323,
7074,0.0140381,0.0107056,
7076,-0.0109863,0.010791,
7078,-0.00610352,0.0106873,
7080,-0.00427246,0.0106079,
7082,-0.0134277,0.0106018,
7084,-0.0177002,0.0106628,
7086,0.00915527,0.0106506,
7088,0.0219727,0.0107727,
7090,-0.00305176,0.01073,
7092,-0.0354004,0.0110291,
7094,0.00183105,0.0109192,
7096,0.00854492,0.0109924,
7098,-0.00488281,0.0108704,
7100,0.00610352,0.0106445,
7102,0.00671387,0.0105774,
7104,0.00366211,0.0105774,
7106,-0.00976563,0.0104553,
7108,-0.0201416,0.0106201,
7110,0,0.0105042,
7112,-0.00854492,0.0104614,
7114,0.0012207,0.0104065,
7116,-0.0335693,0.0105286,
7118,-0.0335693,0.0108398,
7120,-0.0189209,0.0108276,
7122,-0.00610352,0.0107056,
7124,0.0134277,0.0104126,
7126,0.00183105,0.0102905,
7128,-0.0286865,0.010437,
7130,0.0152588,0.0105408,
7132,0.00976563,0.010498,
7134,0.00549316,0.0104797,
7136,0.00183105,0.0104675,
7138,0.00244141,0.0101379,
7140,0.0012207,0.0100586,
7142,-0.012207,0.00991821,
7144,-0.00183105,0.00987549,
7146,0.00244141,0.00980835,
7148,-0.0128174,0.00992432,
7150,-0.0128174,0.00999146,
7152,-0.010376,0.0100647,
7154,-0.0012207,0.00991211,
7156,-0.00366211,0.00979004,
7158,0,0.00969238,
7160,0.00793457,0.00977173,
7162,-0.0140381,0.00980225,
7164,-0.010376,0.00982666,
7166,0.00366211,0.00979614,
7168,0.00549316,0.00974731,
7170,-0.00793457,0.00980225,
7172,-0.00366211,0.00978394,
7174,-0.00549316,0.00982666,
7176,-0.00793457,0.00987549,
7178,-0.00732422,0.00992432,
7180,0.00915527,0.00994873,
7182,-0.00793457,0.00995483,
7184,0.010376,0.00984497,
7186,0.00976563,0.00979004,
7188,-0.00427246,0.00974121,
7190,-0.0164795,0.0098999,
7192,0.0109863,0.00988159,
7194,-0.0012207,0.00984497,
7196,-0.00610352,0.00987549,
7198,-0.0115967,0.00985107,
7200,-0.0158691,0.00993652,
7202,-0.00671387,0.0097229,
7204,-0.012207,0.00978394,
7206,0.00183105,0.00969849,
7208,-0.0170898,0.00985718,
7210,-0.00305176,0.00980225,
7212,0.0238037,0.0100098,
7214,0.0183105,0.00999756,
7216,0.00183105,0.00982056,
7218,-0.020752,0.010022,
7220,0.012207,0.0100525,
7222,0.00366211,0.0098877,
7224,-0.0195313,0.0100159,
7226,-0.0152588,0.0101135,
7228,-0.00915527,0.010199,
7230,-0.010376,0.0102844,
7232,-0.0012207,0.0102478,
7234,-0.0140381,0.0102295,
7236,-0.022583,0.0103577,
7238,-0.00244141,0.0102722,
7240,0.00305176,0.0102173,
7242,-0.000610352,0.010144,
7244,0.00732422,0.0101501,
7246,-0.00976563,0.0101318,
7248,-0.0164795,0.01026,
7250,0.0140381,0.0103638,
7252,-0.0158691,0.0104675,
7254,-0.00732422,0.010437,
7256,0.00915527,0.0104187,
7258,-0.03479,0.0106995,
7260,-0.00427246,0.0105042,
7262,-0.0109863,0.0105042,
7264,-0.0262451,0.0107605,
7266,-0.00732422,0.0105652,
7268,0.0177002,0.0105408,
7270,-0.00732422,0.010321,
7272,-0.0128174,0.0103577,
7274,-0.0012207,0.0102295,
7276,0.000610352,0.0101257,
7278,-0.010376,0.0101685,
7280,-0.00732422,0.010199,
7282,0.00732422,0.0101379,
7284,-0.00610352,0.010022,
7286,0.00366211,0.00996704,
7288,-0.0189209,0.00993652,
7290,-0.00305176,0.00993652,
7292,-0.00732422,0.00965576,
7294,0.00793457,0.0097168,
7296,-0.00610352,0.00969238,
7298,-0.0177002,0.00982056,
7300,-0.00427246,0.00980225,
7302,-0.00244141,0.00975952,
7304,-0.00915527,0.00981445,
7306,0.0012207,0.009729,
7308,-0.00671387,0.00959473,
7310,-0.00915527,0.00968628,
7312,-0.00488281,0.00964966,
7314,-0.0140381,0.00977783,
7316,0.000610352,0.00944824,
7318,-0.0158691,0.00927124,
7320,-0.00549316,0.00913696,
7322,0.00732422,0.00914917,
7324,-0.00244141,0.00903931,
7326,-0.00244141,0.00904541,
7328,-0.00915527,0.0088501,
7330,0.0012207,0.00870972,
7332,-0.00854492,0.00869751,
7334,-0.00549316,0.00869751,
7336,-0.0012207,0.00869141,
7338,-0.0134277,0.00880127,
7340,-0.00915527,0.00888062,
7342,-0.0152588,0.00891113,
7344,0.00488281,0.00894165,
7346,0.00305176,0.00894775,
7348,0.00244141,0.00884399,
7350,-0.0134277,0.0088501,
7352,-0.00793457,0.00882568,
7354,-0.00305176,0.00884399,
7356,-0.00732422,0.00888062,
7358,-0.0146484,0.0090271,
7360,-0.0189209,0.00913696,
7362,-0.0158691,0.00915527,
7364,-0.00915527,0.00914307,
7366,-0.010376,0.00921021,
7368,-0.00732422,0.00922852,
7370,0.00671387,0.00921631,
7372,-0.00305176,0.00921021,
7374,0.00549316,0.00921021,
7376,-0.0177002,0.00930786,
7378,0.00915527,0.00932617,
7380,0.00488281,0.00928345,
7382,-0.00732422,0.00927734,
7384,0.00427246,0.00921631,
7386,0.00305176,0.00914917,
7388,0,0.00910645,
7390,-0.00915527,0.0090332,
7392,0.00366211,0.00895996,
7394,0.0012207,0.00895996,
7396,-0.000610352,0.00890503,
7398,-0.00610352,0.0088501,
7400,-0.00732422,0.00876465,
7402,-0.0299072,0.00899658,
7404,0.00305176,0.00890503,
7406,0.0146484,0.0090332,
7408,-0.000610352,0.00886841,
7410,-0.0128174,0.00896606,
7412,0.0146484,0.00887451,
7414,0.0109863,0.00880127,
7416,-0.0256348,0.00903931,
7418,-0.00671387,0.00889893,
7420,0.00366211,0.00881348,
7422,-0.00793457,0.0088562,
7424,-0.0152588,0.00881348,
7426,-0.020752,0.00886841,
7428,-0.0201416,0.00897827,
7430,0.00732422,0.00894775,
7432,0.0134277,0.00906982,
7434,-0.00671387,0.00899658,
7436,-0.00488281,0.00881958,
7438,-0.00610352,0.0088562,
7440,0.00244141,0.0088501,
7442,0.0170898,0.00901489,
7444,-0.0238037,0.00917969,
7446,-0.0164795,0.00924683,
7448,-0.0146484,0.00922852,
7450,-0.0128174,0.00921631,
7452,-0.00793457,0.00913696,
7454,-0.0115967,0.00917969,
7456,-0.0012207,0.00910034,
7458,-0.0109863,0.0088623,
7460,-0.00915527,0.00891113,
7462,0,0.00880127,
7464,-0.00305176,0.00856934,
7466,-0.00244141,0.00852051,
7468,0.00915527,0.00843506,
7470,0.00427246,0.00840454,
7472,0.0109863,0.00838623,
7474,-0.00366211,0.00841064,
7476,-0.020752,0.00861206,
7478,0.00427246,0.00855103,
7480,0.0115967,0.00859375,
7482,-0.0177002,0.00869751,
7484,-0.00732422,0.00870972,
7486,0.0152588,0.00882568,
7488,-0.0256348,0.00889282,
7490,-0.000610352,0.00886841,
7492,-0.0109863,0.00890503,
7494,0.00427246,0.00886841,
7496,0.00244141,0.00883179,
7498,-0.0012207,0.00866699,
7500,-0.0115967,0.00874023,
7502,0.000610352,0.00872192,
7504,-0.000610352,0.00863647,
7506,0.000610352,0.00863037,
7508,0.00366211,0.00859985,
7510,-0.00549316,0.00856323,
7512,0.00732422,0.00858765,
7514,-0.0152588,0.00859985,
7516,0.0115967,0.00870972,
7518,-0.0238037,0.00878906,
7520,-0.00854492,0.00881958,
7522,-0.00793457,0.00882568,
7524,-0.00366211,0.00883789,
7526,-0.00488281,0.0088623,
7528,-0.020752,0.00897827,
7530,-0.0012207,0.00897827,
7532,-0.00366211,0.00892944,
7534,0.000610352,0.00888062,
7536,0.0268555,0.00913696,
7538,-0.00183105,0.009021,
7540,-0.0170898,0.00910034,
7542,0.00549316,0.00900269,
7544,0.0164795,0.00911865,
7546,0,0.00908813,
7548,-0.0219727,0.00928345,
7550,-0.012207,0.00927124,
7552,0.00183105,0.00921021,
7554,-0.0152588,0.00933228,
7556,0,0.00925903,
7558,-0.0170898,0.00928345,
7560,-0.000610352,0.00910034,
7562,-0.0012207,0.00895386,
7564,-0.00366211,0.00889893,
7566,0.000610352,0.00880127,
7568,-0.010376,0.00883179,
7570,-0.0012207,0.00877686,
7572,0.0012207,0.00875854,
7574,0.00244141,0.00872803,
7576,0.0012207,0.00856323,
7578,-0.00305176,0.0085022,
7580,0.00732422,0.00852661,
7582,-0.0170898,0.00862427,
7584,-0.0012207,0.00859375,
7586,-0.00244141,0.00858765,
7588,-0.0140381,0.00872803,
7590,0.00549316,0.00869141,
7592,-0.0219727,0.00887451,
7594,0.00732422,0.00893555,
7596,-0.00732422,0.00900269,
7598,-0.00793457,0.009021,
7600,0.0164795,0.00911255,
7602,0.0219727,0.0090332,
7604,-0.0128174,0.00913086,
7606,-0.0134277,0.00911865,
7608,-0.0012207,0.00912476,
7610,0.0012207,0.00900879,
7612,-0.012207,0.00898438,
7614,-0.0183105,0.00905762,
7616,-0.0268555,0.00906982,
7618,-0.00183105,0.009021,
7620,0.00366211,0.009021,
7622,-0.0140381,0.00908203,
7624,-0.0164795,0.00909424,
7626,-0.00549316,0.00894165,
7628,0.0238037,0.00897827,
7630,-0.0128174,0.0090332,
7632,-0.00366211,0.00893555,
7634,-0.0250244,0.00911865,
7636,-0.00244141,0.00909424,
7638,-0.00427246,0.00907593,
7640,-0.00915527,0.00914307,
7642,-0.0109863,0.00908203,
7644,-0.00610352,0.00890503,
7646,-0.00854492,0.00882568,
7648,-0.00915527,0.00877075,
7650,-0.00244141,0.00866699,
7652,-0.00366211,0.00862427,
7654,-0.00549316,0.00856323,
7656,-0.00244141,0.00857544,
7658,-0.00915527,0.00855713,
7660,-0.00854492,0.00855103,
7662,-0.0012207,0.00856323,
7664,-0.00427246,0.00857544,
7666,-0.000610352,0.00855713,
7668,-0.0012207,0.00847778,
7670,0.00305176,0.00846558,
7672,-0.00427246,0.00839844,
7674,0.00305176,0.00839233,
7676,-0.00427246,0.00822754,
7678,0.00671387,0.00825195,
7680,0.0012207,0.00814819,
7682,-0.0128174,0.00809937,
7684,-0.00671387,0.00809326,
7686,0.00244141,0.00796509,
7688,-0.0128174,0.00783691,
7690,-0.000610352,0.00783691,
7692,-0.00793457,0.0078064,
7694,-0.00488281,0.0078125,
7696,0.00488281,0.00783691,
7698,-0.010376,0.00792847,
7700,0,0.0078125,
7702,-0.00183105,0.00782471,
7704,0.000610352,0.00782471,
7706,0.00549316,0.00787354,
7708,0.00427246,0.00787964,
7710,-0.00671387,0.00789185,
7712,-0.00610352,0.00787964,
7714,-0.00854492,0.0078125,
7716,-0.000610352,0.00770264,
7718,0.00610352,0.00752563,
7720,-0.00854492,0.00752563,
7722,-0.0152588,0.00759888,
7724,-0.012207,0.00768433,
7726,-0.0140381,0.00777588,
7728,0.010376,0.00767212,
7730,0.00244141,0.00768433,
7732,-0.0195313,0.00784302,
7734,-0.00183105,0.00785522,
7736,0.0140381,0.00772705,
7738,-0.000610352,0.00771484,
7740,0.00305176,0.00757446,
7742,-0.00427246,0.00756226,
7744,-0.0109863,0.00750732,
7746,0.00305176,0.00753784,
7748,-0.010376,0.00742187,
7750,-0.00488281,0.00734863,
7752,-0.0146484,0.00747681,
7754,-0.0109863,0.00743408,
7756,-0.0183105,0.00761719,
7758,-0.00854492,0.00753174,
7760,0.00488281,0.00757446,
7762,-0.00427246,0.00760498,
7764,-0.00732422,0.0076416,
7766,0.00366211,0.00767212,
7768,-0.00305176,0.00759888,
7770,-0.000610352,0.00759277,
7772,0.0012207,0.00759277,
7774,0.00854492,0.00765381,
7776,-0.0170898,0.0078125,
7778,-0.00793457,0.00786133,
7780,-0.00244141,0.0078125,
7782,-0.0115967,0.00775757,
7784,-0.00183105,0.00776367,
7786,-0.00366211,0.00777588,
7788,-0.0158691,0.00779419,
7790,0.0183105,0.00792236,
7792,-0.0256348,0.00795898,
7794,0.0128174,0.00801392,
7796,0.0183105,0.00812378,
7798,-0.00976563,0.00814209,
7800,0.0012207,0.0079895,
7802,-0.0134277,0.00790405,
7804,-0.00854492,0.00786133,
7806,-0.000610352,0.00773315,
7808,-0.020752,0.00792847,
7810,0,0.00791626,
7812,-0.0158691,0.00795288,
7814,-0.00671387,0.00783691,
7816,0.00854492,0.00765381,
7818,-0.00183105,0.00765381,
7820,-0.00610352,0.00767822,
7822,-0.00244141,0.00756226,
7824,0.00183105,0.00741577,
7826,-0.0012207,0.00737305,
7828,-0.0146484,0.00728149,
7830,-0.010376,0.00725708,
7832,-0.020752,0.00742798,
7834,-0.0109863,0.0072876,
7836,-0.00915527,0.00735474,
7838,-0.012207,0.00743408,
7840,-0.000610352,0.00734863,
7842,0.00793457,0.00731812,
7844,-0.00976563,0.00735474,
7846,-0.0152588,0.00742187,
7848,-0.000610352,0.00733643,
7850,0.00305176,0.00734253,
7852,-0.00793457,0.00738525,
7854,-0.0140381,0.0074707,
7856,-0.00793457,0.00752563,
7858,-0.00976563,0.00753174,
7860,-0.0164795,0.00761108,
7862,0,0.00759888,
7864,0,0.00755615,
7866,0.00305176,0.00758057,
7868,0,0.00756836,
7870,-0.00671387,0.00760498,
7872,0.00366211,0.00759888,
7874,0.00366211,0.00760498,
7876,0.000610352,0.00756836,
7878,-0.0158691,0.00765991,
7880,-0.00610352,0.00770874,
7882,-0.00549316,0.0076355,
7884,0.00976563,0.00766602,
7886,0,0.0076416,
7888,-0.0177002,0.00769043,
7890,-0.0177002,0.00786133,
7892,-0.000610352,0.00778809,
7894,-0.000610352,0.00774536,
7896,-0.00183105,0.00771484,
7898,-0.00854492,0.00769653,
7900,-0.00793457,0.00777588,
7902,-0.0012207,0.00776978,
7904,0.00183105,0.00778198,
7906,-0.00976563,0.00782471,
7908,-0.0109863,0.00789185,
7910,-0.00854492,0.00791016,
7912,0.0012207,0.00786133,
7914,-0.0140381,0.00791626,
7916,-0.012207,0.00803223,
7918,-0.0189209,0.0081604,
7920,-0.00610352,0.00813599,
7922,0.00610352,0.00804443,
7924,-0.00305176,0.00795288,
7926,-0.00183105,0.00783081,
7928,-0.00488281,0.00777588,
7930,-0.00305176,0.00778198,
7932,-0.00244141,0.00761108,
7934,0.00183105,0.00761108,
7936,-0.012207,0.00759277,
7938,-0.00793457,0.00766602,
7940,0.00244141,0.00765991,
7942,-0.00793457,0.00769653,
7944,-0.00183105,0.00760498,
7946,0.010376,0.00767822,
7948,-0.00305176,0.00760498,
7950,0.0201416,0.00775757,
7952,-0.012207,0.00773315,
7954,-0.00915527,0.00771484,
7956,0.0177002,0.00770874,
7958,-0.00732422,0.00769653,
7960,-0.00976563,0.00774536,
7962,-0.00549316,0.00775757,
7964,-0.0170898,0.00785522,
7966,-0.010376,0.00792236,
7968,-0.00366211,0.00792847,
7970,-0.00610352,0.0079834,
7972,-0.0201416,0.00817261,
7974,0.00183105,0.00810547,
7976,0.0158691,0.00809326,
7978,-0.0250244,0.00826416,
7980,0.00183105,0.00825806,
7982,0.012207,0.00826416,
7984,-0.00549316,0.00830078,
7986,-0.00671387,0.0083313,
7988,-0.0183105,0.00835571,
7990,0.000610352,0.00817871,
7992,-0.00488281,0.00797119,
7994,-0.012207,0.00796509,
7996,-0.0109863,0.00789185,
7998,-0.0134277,0.00792847,
8000,-0.00793457,0.00799561,
8002,-0.00671387,0.00792847,
8004,-0.00732422,0.00791626,
8006,-0.0012207,0.00792236,
8008,-0.00976563,0.0078125,
8010,-0.00488281,0.00786133,
8012,-0.00549316,0.00775757,
8014,-0.00610352,0.00775146,
8016,-0.00671387,0.00773315,
8018,-0.012207,0.00783691,
8020,0.00732422,0.00784912,
8022,0.0109863,0.00793457,
8024,-0.00610352,0.00797729,
8026,0.0012207,0.00797729,
8028,-0.00305176,0.00786133,
8030,-0.00427246,0.00780029,
8032,-0.00427246,0.0076355,
8034,0.0109863,0.0076355,
8036,-0.00732422,0.00761719,
8038,-0.0274658,0.00776978,
8040,-0.00610352,0.00782471,
8042,-0.00732422,0.0078186,
8044,-0.00427246,0.00776367,
8046,0,0.00761108,
8048,-0.010376,0.00770874,
8050,-0.00549316,0.00773315,
8052,-0.00793457,0.00773315,
8054,-0.00366211,0.00762939,
8056,-0.00244141,0.00757446,
8058,-0.00671387,0.00754395,
8060,0,0.00737915,
8062,-0.0115967,0.00749512,
8064,-0.0109863,0.00760498,
8066,-0.0012207,0.00758667,
8068,0,0.00758667,
8070,0.00244141,0.00754395,
8072,-0.012207,0.00762939,
8074,-0.00244141,0.00761719,
8076,-0.00427246,0.00765381,
8078,-0.0128174,0.00762329,
8080,-0.000610352,0.00756836,
8082,-0.00732422,0.00758667,
8084,-0.00488281,0.00753784,
8086,-0.00183105,0.00755615,
8088,-0.00427246,0.00742187,
8090,0.00488281,0.0072937,
8092,-0.00305176,0.00731812,
8094,0.000610352,0.00731812,
8096,0.0115967,0.00741577,
8098,-0.00366211,0.00736694,
8100,-0.00305176,0.00731812,
8102,-0.00793457,0.00738525,
8104,-0.0128174,0.00749512,
8106,-0.0012207,0.00740967,
8108,0.00366211,0.00733643,
8110,-0.010376,0.00735474,
8112,-0.0134277,0.00747681,
8114,-0.00549316,0.00739136,
8116,0.00427246,0.00731201,
8118,-0.0128174,0.00725098,
8120,-0.00671387,0.00725708,
8122,-0.0146484,0.00734253,
8124,-0.00488281,0.00736084,
8126,-0.00854492,0.00742798,
8128,-0.00915527,0.0074707,
8130,-0.0164795,0.00760498,
8132,-0.00305176,0.00761108,
8134,-0.00244141,0.00761719,
8136,0.00549316,0.00755005,
8138,-0.00793457,0.00755005,
8140,-0.00488281,0.00757446,
8142,0.0012207,0.00750732,
8144,-0.00244141,0.00751343,
8146,0.00793457,0.00748901,
8148,-0.010376,0.00756226,
8150,0.0012207,0.00737305,
8152,-0.0195313,0.00744629,
8154,0.00183105,0.00737305,
8156,-0.0140381,0.00733643,
8158,-0.00427246,0.00730591,
8160,-0.0177002,0.00738525,
8162,-0.0158691,0.00748901,
8164,-0.00610352,0.00737915,
8166,-0.00915527,0.00736694,
8168,-0.010376,0.00743408,
8170,0.00305176,0.00740356,
8172,0.00244141,0.00722656,
8174,-0.00549316,0.00726318,
8176,-0.0115967,0.00722046,
8178,0.00244141,0.00699463,
8180,-0.00976563,0.00707397,
8182,-0.00366211,0.00698853,
8184,-0.00793457,0.00701294,
8186,-0.0115967,0.00706177,
8188,-0.0152588,0.00703125,
8190,0.0012207,0.00703735,
8192,-0.00854492,0.00707397,
8194,-0.00793457,0.00703125,
8196,0.00549316,0.00697632,
8198,0.00427246,0.00688477,
8200,-0.0115967,0.00692139,
8202,-0.00854492,0.0069397,
8204,0.00732422,0.0069397,
8206,0.0140381,0.00706787,
8208,-0.0158691,0.00712891,
8210,0.00732422,0.00715332,
8212,0.00488281,0.00714722,
8214,-0.00183105,0.00710449,
8216,0.0109863,0.00714722,
8218,0.012207,0.00714722,
8220,-0.020752,0.00728149,
8222,0.00915527,0.00726318,
8224,-0.000610352,0.00720825,
8226,-0.00549316,0.00725098,
8228,-0.00854492,0.00730591,
8230,0.00244141,0.0072876,
8232,-0.0189209,0.00743408,
8234,-0.0250244,0.00757446,
8236,-0.00305176,0.00753174,
8238,-0.0128174,0.00738525,
8240,0.00793457,0.00740356,
8242,0.00366211,0.00736694,
8244,-0.0335693,0.00765991,
8246,0.00305176,0.00769043,
8248,-0.00183105,0.00760498,
8250,-0.00610352,0.00761108,
8252,-0.000610352,0.00753784,
8254,-0.0115967,0.00761719,
8256,-0.00305176,0.00762329,
8258,-0.0158691,0.00771484,
8260,-0.0134277,0.00784912,
8262,0.000610352,0.00773926,
8264,0.00427246,0.00767212,
8266,0.0335693,0.00799561,
8268,-0.00976563,0.00809326,
8270,-0.0115967,0.00818481,
8272,0.0201416,0.00826416,
8274,0.00427246,0.00828247,
8276,-0.00305176,0.00827026,
8278,-0.00610352,0.00820313,
8280,-0.0134277,0.0083313,
8282,0.00488281,0.00830688,
8284,0.00244141,0.00828247,
8286,-0.0384521,0.00864868,
8288,-0.0183105,0.00878906,
8290,0.010376,0.00884399,
8292,-0.010376,0.00891724,
8294,-0.0146484,0.00905762,
8296,-0.00915527,0.0090332,
8298,-0.0170898,0.00916748,
8300,-0.00427246,0.00917969,
8302,-0.0158691,0.00925903,
8304,-0.010376,0.00923462,
8306,0.00732422,0.00929565,
8308,-0.00854492,0.00934448,
8310,-0.00793457,0.00932007,
8312,-0.00366211,0.00922241,
8314,-0.00915527,0.00925903,
8316,0.00305176,0.00924683,
8318,-0.0012207,0.00913086,
8320,-0.00183105,0.00908203,
8322,-0.00793457,0.00901489,
8324,-0.00427246,0.00900879,
8326,0.0140381,0.00906372,
8328,-0.0195313,0.00916748,
8330,-0.012207,0.00912476,
8332,-0.00732422,0.00916748,
8334,0.00915527,0.00923462,
8336,0.00976563,0.00927734,
8338,-0.0152588,0.00935059,
8340,-0.000610352,0.00930786,
8342,-0.00244141,0.00932007,
8344,0.00183105,0.00931396,
8346,0.000610352,0.00924072,
8348,-0.0128174,0.00926514,
8350,0.00366211,0.00928955,
8352,-0.0177002,0.00927124,
8354,-0.0128174,0.0093811,
8356,0.00244141,0.00926514,
8358,0.00244141,0.00924683,
8360,0.00366211,0.00910645,
8362,-0.00305176,0.00897827,
8364,-0.00976563,0.00901489,
8366,0.00671387,0.00899048,
8368,0.00427246,0.00892944,
8370,-0.00488281,0.00894775,
8372,0,0.00892334,
8374,-0.00854492,0.00895386,
8376,-0.0012207,0.0088501,
8378,-0.00427246,0.00886841,
8380,-0.0158691,0.00892944,
8382,-0.010376,0.00899658,
8384,-0.00854492,0.00900269,
8386,-0.0128174,0.00901489,
8388,-0.010376,0.00896606,
8390,-0.00976563,0.00905151,
8392,-0.00732422,0.00903931,
8394,-0.0146484,0.00910645,
8396,0.00488281,0.00910034,
8398,0.00549316,0.00911255,
8400,0.000610352,0.00900269,
8402,-0.0201416,0.00911865,
8404,-0.000610352,0.00905151,
8406,-0.0012207,0.00892334,
8408,-0.00671387,0.00883179,
8410,-0.0109863,0.00886841,
8412,-0.00305176,0.0088501,
8414,-0.0109863,0.00894165,
8416,-0.00549316,0.00888672,
8418,-0.00854492,0.0088501,
8420,0.00976563,0.00874023,
8422,-0.00915527,0.00874023,
8424,-0.012207,0.0088562,
8426,-0.00610352,0.0088623,
8428,-0.00488281,0.00882568,
8430,-0.00366211,0.00883789,
8432,-0.012207,0.00877075,
8434,0.0012207,0.00853271,
8436,0.00671387,0.00856934,
8438,-0.00671387,0.0085083,
8440,-0.0170898,0.00859985,
8442,0.0109863,0.0086731,
8444,0.0335693,0.0086731,
8446,-0.022583,0.00886841,
8448,-0.00915527,0.00894165,
8450,0.00549316,0.00893555,
8452,0.00610352,0.00899048,
8454,-0.0170898,0.00904541,
8456,-0.00244141,0.00903931,
8458,-0.0152588,0.0090332,
8460,-0.0177002,0.00907593,
8462,-0.00549316,0.00912476,
8464,-0.010376,0.00918579,
8466,-0.0109863,0.00895996,
8468,-0.010376,0.00896606,
8470,-0.0140381,0.00899048,
8472,-0.00854492,0.00887451,
8474,0.00488281,0.00888062,
8476,-0.00915527,0.00894165,
8478,-0.00549316,0.00893555,
8480,-0.0134277,0.00893555,
8482,-0.00366211,0.00892334,
8484,0.00366211,0.00893555,
8486,-0.000610352,0.00855713,
