Dani_B_2-L01
Gráfico creado el:2026-06-03 16:41:35.616
Registro en:2026-06-03 16:43:34.620
2 mseg/muestras
2 canales
EMG
mV
EMG Integrado
mV-sec
milliSec,CH1,CH40,
,89674 samples,89674 samples,
0,-0.00793457,7.93457E-05,
2,-0.00671387,0.000146484,
4,-0.00488281,0.000195313,
6,-0.0012207,0.00020752,
8,-0.00183105,0.00022583,
10,-0.00732422,0.000299072,
12,-0.00976563,0.000396729,
14,0.00610352,0.000457764,
16,-0.0152588,0.000610352,
18,-0.012207,0.000732422,
20,-0.00366211,0.000769043,
22,-0.0109863,0.000878906,
24,-0.0128174,0.00100708,
26,0,0.00100708,
28,-0.00732422,0.00108032,
30,-0.00671387,0.00114746,
32,-0.00732422,0.0012207,
34,-0.00366211,0.00125732,
36,-0.00366211,0.00129395,
38,0.00366211,0.00133057,
40,0.00244141,0.00135498,
42,0.00610352,0.00141602,
44,-0.0146484,0.0015625,
46,-0.00976563,0.00166016,
48,0.0012207,0.00167236,
50,-0.00610352,0.0017334,
52,-0.00488281,0.00178223,
54,-0.00976563,0.00187988,
56,-0.022583,0.00210571,
58,-0.00549316,0.00216064,
60,0.0012207,0.00217285,
62,0.00244141,0.00219727,
64,0.00976563,0.00229492,
66,0.00183105,0.00231323,
68,0.010376,0.00241699,
70,0.00915527,0.00250854,
72,-0.0250244,0.00275879,
74,-0.0012207,0.002771,
76,-0.000610352,0.0027771,
78,-0.00976563,0.00287476,
80,-0.0201416,0.00307617,
82,-0.010376,0.00317993,
84,-0.00915527,0.00327148,
86,-0.000610352,0.00327759,
88,0.0115967,0.00339355,
90,-0.00610352,0.00345459,
92,0.00183105,0.0034729,
94,0.0012207,0.00348511,
96,0.00976563,0.00358276,
98,0.0012207,0.00359497,
100,-0.0146484,0.00374146,
102,-0.00488281,0.00379028,
104,-0.00610352,0.00385132,
106,-0.0115967,0.00396729,
108,-0.00488281,0.00401611,
110,-0.00183105,0.00403442,
112,-0.0012207,0.00404663,
114,-0.00244141,0.00407104,
116,-0.0134277,0.00420532,
118,-0.0128174,0.0043335,
120,0.00549316,0.00438843,
122,-0.00244141,0.00441284,
124,-0.0140381,0.00455322,
126,-0.0109863,0.00466309,
128,-0.00427246,0.00470581,
130,-0.00488281,0.00475464,
132,-0.00366211,0.00479126,
134,-0.0140381,0.00493164,
136,-0.000610352,0.00493774,
138,0.00488281,0.00498657,
140,-0.0152588,0.00513916,
142,-0.010376,0.00524292,
144,-0.00793457,0.00532227,
146,-0.0115967,0.00543823,
148,-0.00915527,0.00552979,
150,-0.010376,0.00563354,
152,-0.00915527,0.0057251,
154,-0.00732422,0.00579834,
156,0,0.00579834,
158,0.00793457,0.00587769,
160,0.00549316,0.00593262,
162,-0.020752,0.00614014,
164,-0.00305176,0.00617065,
166,0.00671387,0.00623779,
168,-0.00854492,0.00632324,
170,-0.0170898,0.00649414,
172,-0.0109863,0.006604,
174,-0.0012207,0.00661621,
176,-0.00305176,0.00664673,
178,-0.00427246,0.00668945,
180,0.000610352,0.00669556,
182,-0.00366211,0.00673218,
184,0.000610352,0.00673828,
186,0.00427246,0.00678101,
188,-0.00366211,0.00681763,
190,-0.00976563,0.00691528,
192,-0.00915527,0.00700684,
194,0.00305176,0.00703735,
196,-0.00244141,0.00706177,
198,-0.00671387,0.00712891,
200,-0.00427246,0.00709229,
202,0.00549316,0.00708008,
204,-0.00183105,0.00704956,
206,-0.0146484,0.00718384,
208,0.00183105,0.00718384,
210,-0.00976563,0.00720825,
212,-0.00976563,0.00720825,
214,0.00427246,0.00718994,
216,-0.00915527,0.00712891,
218,0.000610352,0.00701294,
220,-0.00183105,0.00699463,
222,-0.000610352,0.00689087,
224,-0.00671387,0.00682983,
226,-0.00305176,0.00686035,
228,0.00183105,0.00680542,
230,-0.00305176,0.0067688,
232,-0.00671387,0.0067627,
234,-0.00854492,0.00681152,
236,-0.00732422,0.00684814,
238,-0.0012207,0.00682373,
240,0.0012207,0.00681152,
242,-0.00427246,0.00679321,
244,-0.00915527,0.00673828,
246,0.00427246,0.00668335,
248,-0.0012207,0.00668335,
250,-0.0109863,0.00673218,
252,0.00915527,0.0067749,
254,0.0109863,0.00678711,
256,-0.0170898,0.00673218,
258,-0.00610352,0.00673828,
260,-0.00183105,0.00674438,
262,-0.00610352,0.00678101,
264,-0.00854492,0.0067688,
266,-0.0158691,0.00690918,
268,-0.00488281,0.00685425,
270,-0.0134277,0.00689697,
272,-0.00366211,0.00668335,
274,-0.00671387,0.00673828,
276,-0.012207,0.00685425,
278,-0.00854492,0.00684204,
280,-0.0170898,0.00681152,
282,-0.00366211,0.00674438,
284,-0.0128174,0.00678101,
286,-0.0140381,0.00691528,
288,-0.0109863,0.00690918,
290,-0.012207,0.00697021,
292,-0.012207,0.00707397,
294,-0.010376,0.00716553,
296,-0.00732422,0.00714111,
298,0.00549316,0.00718384,
300,-0.0158691,0.00719604,
302,-0.00854492,0.00723267,
304,-0.00366211,0.00720825,
306,-0.000610352,0.00709839,
308,-0.00183105,0.00706787,
310,-0.00976563,0.00714722,
312,0.00183105,0.00715332,
314,0,0.00712891,
316,-0.00854492,0.00708008,
318,-0.00244141,0.00697632,
320,-0.00488281,0.00697021,
322,-0.010376,0.00704956,
324,-0.00549316,0.00696411,
326,0.00183105,0.00687256,
328,-0.00549316,0.00688477,
330,-0.00549316,0.00689087,
332,-0.00610352,0.00691528,
334,-0.00610352,0.00683594,
336,-0.00244141,0.00685425,
338,0.00244141,0.00682983,
340,-0.00549316,0.00673218,
342,-0.00915527,0.00671997,
344,-0.00915527,0.00673218,
346,-0.000610352,0.00662231,
348,-0.000610352,0.00653687,
350,-0.00915527,0.00652466,
352,-0.0012207,0.00644531,
354,0.00549316,0.006427,
356,0,0.006427,
358,-0.0146484,0.00649414,
360,-0.00793457,0.00651855,
362,0.00488281,0.00635986,
364,-0.00793457,0.00640869,
366,-0.0128174,0.00646973,
368,-0.00183105,0.00640259,
370,0,0.00623169,
372,-0.00305176,0.00615234,
374,-0.00915527,0.00623169,
376,-0.0109863,0.00631104,
378,-0.00183105,0.00628662,
380,-0.00854492,0.00636597,
382,-0.0115967,0.00644531,
384,-0.020752,0.00664673,
386,-0.0152588,0.00675659,
388,-0.0134277,0.00685425,
390,-0.0158691,0.00691528,
392,-0.00976563,0.00692139,
394,-0.00732422,0.00696411,
396,-0.0183105,0.0071228,
398,-0.00549316,0.0071106,
400,-0.00549316,0.0071228,
402,-0.0128174,0.00719604,
404,-0.00915527,0.00726929,
406,0.000610352,0.00712891,
408,-0.00549316,0.00716553,
410,-0.00732422,0.00714111,
412,0.00671387,0.0071106,
414,0.00793457,0.00714722,
416,-0.00488281,0.00710449,
418,-0.00915527,0.00718994,
420,0.00610352,0.00723267,
422,-0.00366211,0.00726318,
424,0.00366211,0.00723267,
426,-0.012207,0.00732422,
428,-0.00976563,0.00740356,
430,-0.00793457,0.00745239,
432,-0.00366211,0.00742187,
434,-0.00732422,0.00740967,
436,-0.00793457,0.00741577,
438,-0.0128174,0.00753174,
440,-0.00488281,0.00756836,
442,-0.00488281,0.00757446,
444,-0.00854492,0.00756836,
446,-0.0115967,0.0076416,
448,-0.000610352,0.0076355,
450,-0.00610352,0.00758667,
452,-0.000610352,0.00750122,
454,-0.00671387,0.0074585,
456,-0.00976563,0.00738525,
458,0.00488281,0.00737305,
460,-0.00915527,0.00744629,
462,-0.012207,0.00750732,
464,0.00488281,0.0074707,
466,-0.0109863,0.00742187,
468,-0.00854492,0.0074585,
470,0.00915527,0.00741577,
472,-0.00488281,0.00742798,
474,-0.00305176,0.00739136,
476,-0.00793457,0.00734863,
478,-0.00671387,0.00733032,
480,-0.00488281,0.00720825,
482,0.0012207,0.00718384,
484,0.00244141,0.00708008,
486,-0.0201416,0.00714111,
488,-0.00854492,0.0071167,
490,-0.0170898,0.00716553,
492,0.00732422,0.0071167,
494,-0.00671387,0.00708008,
496,-0.0152588,0.00715942,
498,0.000610352,0.0071106,
500,-0.0177002,0.00712891,
502,-0.00488281,0.00709229,
504,0.00671387,0.0071228,
506,-0.020752,0.00732422,
508,-0.00793457,0.00738525,
510,0.00305176,0.00731812,
512,-0.0134277,0.00743408,
514,0,0.00743408,
516,-0.010376,0.00745239,
518,-0.00244141,0.00745239,
520,-0.00488281,0.00745239,
522,-0.00671387,0.00741577,
524,-0.00366211,0.00739746,
526,-0.00244141,0.00740356,
528,0.00793457,0.00742798,
530,-0.00793457,0.00745239,
532,-0.00427246,0.00743408,
534,-0.00610352,0.00743408,
536,-0.00183105,0.00742798,
538,0.000610352,0.00740967,
540,0.0170898,0.00752563,
542,0.00488281,0.00748291,
544,-0.022583,0.00761719,
546,-0.012207,0.00773315,
548,0.0012207,0.00773926,
550,-0.012207,0.00776978,
552,-0.00854492,0.00784302,
554,-0.0158691,0.00794678,
556,-0.0238037,0.00818481,
558,-0.00976563,0.00813599,
560,-0.00976563,0.0081543,
562,-0.010376,0.00820923,
564,-0.00427246,0.00817261,
566,-0.00488281,0.00809326,
568,-0.0115967,0.00819092,
570,-0.0012207,0.00820313,
572,-0.00671387,0.00823975,
574,-0.00976563,0.00824585,
576,-0.00854492,0.00822144,
578,-0.00610352,0.00826416,
580,-0.00915527,0.00827026,
582,-0.0012207,0.0081665,
584,-0.010376,0.00806274,
586,-0.00549316,0.00796509,
588,-0.0183105,0.00801392,
590,-0.0177002,0.00803223,
592,-0.00305176,0.00796509,
594,-0.0158691,0.00805054,
596,-0.0195313,0.00806274,
598,-0.00732422,0.00808105,
600,-0.0140381,0.0081665,
602,-0.0146484,0.00818481,
604,-0.00610352,0.0081543,
606,-0.00488281,0.00819702,
608,0.000610352,0.00814819,
610,-0.00732422,0.00814819,
612,-0.00793457,0.0081604,
614,-0.00610352,0.00814209,
616,-0.00732422,0.0081665,
618,0.00366211,0.00811157,
620,-0.0146484,0.00819702,
622,-0.00915527,0.00825195,
624,0.00183105,0.00823364,
626,-0.0177002,0.00828857,
628,0.00305176,0.00822144,
630,-0.00427246,0.00818481,
632,-0.012207,0.00827026,
634,-0.0134277,0.0083313,
636,-0.012207,0.00837402,
638,0.0170898,0.00841675,
640,0,0.00836792,
642,-0.0317383,0.00863647,
644,-0.00488281,0.00859985,
646,-0.00610352,0.00854492,
648,-0.0012207,0.00855103,
650,-0.0115967,0.00860596,
652,0.00366211,0.00863647,
654,-0.00610352,0.00863037,
656,-0.00976563,0.00863037,
658,-0.00854492,0.00866699,
660,0,0.00857544,
662,-0.00244141,0.00847778,
664,0.00610352,0.00848999,
666,-0.0115967,0.00849609,
668,-0.0158691,0.00856934,
670,-0.00366211,0.0085144,
672,-0.0128174,0.00859375,
674,0,0.00856323,
676,-0.00366211,0.00852051,
678,-0.00183105,0.00847168,
680,-0.00488281,0.00847168,
682,-0.000610352,0.00846558,
684,-0.0109863,0.00855103,
686,-0.00854492,0.00843506,
688,0.000610352,0.00835571,
690,-0.0115967,0.00830078,
692,0,0.00822754,
694,0.0146484,0.00830688,
696,-0.0158691,0.00831299,
698,0,0.00830688,
700,0.0012207,0.00814209,
702,0.00244141,0.00811768,
704,-0.00671387,0.00811768,
706,-0.00671387,0.00797729,
708,-0.00671387,0.00796509,
710,-0.00671387,0.00800171,
712,-0.00976563,0.00796509,
714,-0.00732422,0.00803833,
716,-0.00549316,0.0079895,
718,0.00183105,0.0079834,
720,0,0.00793457,
722,0.00671387,0.00793457,
724,-0.00305176,0.00792847,
726,-0.00793457,0.0079834,
728,0.00793457,0.0079834,
730,0.00549316,0.00795898,
732,0.00305176,0.00794678,
734,0.00671387,0.00795288,
736,0.00610352,0.00799561,
738,-0.0012207,0.00800171,
740,-0.00915527,0.00792236,
742,0.00305176,0.00790405,
744,-0.0128174,0.0078064,
746,-0.0109863,0.00779419,
748,-0.00671387,0.00784912,
750,-0.00915527,0.0078186,
752,-0.00915527,0.00782471,
754,0.00732422,0.00773926,
756,-0.0012207,0.00751343,
758,0.00610352,0.00747681,
760,-0.010376,0.00748291,
762,0.0128174,0.00750732,
764,-0.00183105,0.00748291,
766,-0.0146484,0.00758057,
768,-0.0164795,0.00762939,
770,-0.00854492,0.00770264,
772,-0.00915527,0.00772705,
774,-0.0140381,0.00776978,
776,-0.00549316,0.00773926,
778,-0.00549316,0.00773315,
780,-0.0152588,0.00779419,
782,0.0012207,0.00779419,
784,-0.00366211,0.00772705,
786,-0.00244141,0.00769653,
788,-0.0109863,0.00762329,
790,-0.00366211,0.00748291,
792,-0.0128174,0.00758057,
794,-0.00244141,0.00744629,
796,-0.00610352,0.00731201,
798,-0.00549316,0.0072937,
800,-0.0115967,0.00726929,
802,0.00671387,0.00718994,
804,-0.00366211,0.00716553,
806,0.00183105,0.00713501,
808,-0.00549316,0.00718384,
810,-0.00610352,0.00717163,
812,-0.00549316,0.00714722,
814,-0.0012207,0.00709839,
816,-0.0140381,0.00716553,
818,-0.00183105,0.00714722,
820,-0.00305176,0.00703125,
822,-0.012207,0.00706177,
824,-0.022583,0.00726929,
826,0.000610352,0.00709839,
828,0.00915527,0.00715942,
830,-0.0134277,0.00725098,
832,-0.0146484,0.00727539,
834,-0.0134277,0.00727539,
836,0.000610352,0.00715942,
838,-0.00183105,0.00700684,
840,-0.0195313,0.00720215,
842,-0.0109863,0.00699463,
844,-0.0012207,0.00695801,
846,-0.0128174,0.00702515,
848,-0.00915527,0.00710449,
850,-0.020752,0.00719604,
852,-0.00732422,0.00723267,
854,0.00183105,0.00718994,
856,0.000610352,0.00709839,
858,-0.0177002,0.00718994,
860,-0.0128174,0.00731812,
862,0.00366211,0.00733032,
864,0,0.00726929,
866,-0.00976563,0.00725098,
868,-0.0134277,0.00722656,
870,-0.00976563,0.0072876,
872,-0.012207,0.00728149,
874,-0.00854492,0.00736694,
876,-0.0134277,0.0074646,
878,-0.00854492,0.00753174,
880,-0.00915527,0.00757446,
882,-0.0146484,0.00771484,
884,-0.00610352,0.00766602,
886,-0.00915527,0.00767212,
888,0.00488281,0.00771484,
890,-0.0146484,0.00774536,
892,-0.0128174,0.00787354,
894,0.00915527,0.0078186,
896,-0.00610352,0.00772095,
898,0.00183105,0.00773926,
900,-0.00915527,0.0078186,
902,0.0146484,0.00794067,
904,0.00976563,0.00797119,
906,-0.00976563,0.00800171,
908,0.0189209,0.00812378,
910,-0.00427246,0.00809937,
912,-0.0250244,0.00825195,
914,0.00732422,0.00825195,
916,-0.00915527,0.00828857,
918,-0.0177002,0.00844727,
920,-0.0250244,0.00869751,
922,0,0.00863037,
924,-0.0213623,0.00881348,
926,-0.00610352,0.00879517,
928,0.000610352,0.00872192,
930,-0.00671387,0.00873413,
932,-0.00793457,0.00878296,
934,-0.00549316,0.00877075,
936,0.00305176,0.00874023,
938,-0.00183105,0.00874634,
940,-0.0195313,0.0088501,
942,-0.00488281,0.00886841,
944,-0.0128174,0.00886841,
946,0.00244141,0.00878296,
948,0.020752,0.00892334,
950,-0.0146484,0.00897827,
952,-0.0164795,0.00905151,
954,-0.00427246,0.009021,
956,0.00976563,0.00910645,
958,-0.00183105,0.00906372,
960,-0.00976563,0.00905762,
962,-0.0177002,0.00910645,
964,-0.012207,0.00921021,
966,-0.0012207,0.00907593,
968,-0.00549316,0.00896606,
970,0,0.00888062,
972,-0.0012207,0.00880127,
974,0.00366211,0.00869751,
976,-0.00244141,0.00866699,
978,-0.00976563,0.00870972,
980,-0.0012207,0.00856934,
982,0.0286865,0.00884399,
984,-0.00854492,0.00889282,
986,-0.0201416,0.00906982,
988,0.00366211,0.00899658,
990,0.0012207,0.00897217,
992,-0.0152588,0.00899658,
994,-0.00976563,0.00906982,
996,-0.0012207,0.009021,
998,-0.00915527,0.00905762,
1000,-0.00549316,0.00899658,
1002,-0.00793457,0.00900879,
1004,-0.00854492,0.00905762,
1006,-0.00427246,0.00908203,
1008,0.00549316,0.00908203,
1010,-0.00427246,0.00906372,
1012,-0.00183105,0.0090271,
1014,-0.0012207,0.0090271,
1016,-0.00305176,0.00891724,
1018,-0.00732422,0.00897217,
1020,0.0012207,0.00895386,
1022,-0.00549316,0.00888672,
1024,-0.00671387,0.00872803,
1026,0.00183105,0.00874023,
1028,0.00549316,0.00870361,
1030,-0.0134277,0.00870361,
1032,0.00610352,0.00861816,
1034,-0.012207,0.00860596,
1036,-0.012207,0.00872192,
1038,0.00732422,0.00877686,
1040,-0.0164795,0.00874634,
1042,-0.00793457,0.00871582,
1044,-0.0134277,0.00883789,
1046,-0.012207,0.00883179,
1048,-0.00671387,0.00880737,
1050,0.0195313,0.00879517,
1052,-0.0140381,0.0088623,
1054,-0.012207,0.00896606,
1056,-0.0012207,0.00897217,
1058,-0.000610352,0.00880127,
1060,0.00732422,0.00874634,
1062,-0.00976563,0.00880737,
1064,-0.010376,0.00891113,
1066,-0.0262451,0.00907593,
1068,0.0213623,0.00915527,
1070,0.012207,0.00917969,
1072,-0.0189209,0.00924683,
1074,-0.0219727,0.0093811,
1076,0.00976563,0.00934448,
1078,-0.0115967,0.009375,
1080,-0.00671387,0.00935059,
1082,-0.0134277,0.00933838,
1084,-0.0128174,0.00940552,
1086,-0.0134277,0.00944824,
1088,-0.00183105,0.00941772,
1090,-0.0177002,0.00944824,
1092,-0.0189209,0.00950928,
1094,0.00793457,0.00949707,
1096,-0.00915527,0.00952759,
1098,-0.00488281,0.00955811,
1100,-0.00366211,0.00950317,
1102,0.00671387,0.00942383,
1104,0.00183105,0.00934448,
1106,-0.00671387,0.00931396,
1108,0.00244141,0.00914917,
1110,-0.00183105,0.00912476,
1112,0.00549316,0.00892944,
1114,-0.00549316,0.00891113,
1116,-0.00671387,0.00888672,
1118,-0.00366211,0.00874634,
1120,-0.0146484,0.00864258,
1122,-0.0201416,0.00884399,
1124,0.00915527,0.00872192,
1126,-0.00671387,0.00872803,
1128,-0.010376,0.00882568,
1130,-0.00854492,0.00884399,
1132,-0.00549316,0.00881958,
1134,-0.0201416,0.00896606,
1136,0.00427246,0.00897827,
1138,0.00366211,0.00899658,
1140,-0.00976563,0.00889893,
1142,-0.0128174,0.00897827,
1144,0.0012207,0.0088623,
1146,-0.000610352,0.00884399,
1148,0.00366211,0.0086731,
1150,-0.00183105,0.00854492,
1152,-0.0219727,0.00859985,
1154,-0.00549316,0.00861206,
1156,0.00183105,0.00853271,
1158,0.00366211,0.00855103,
1160,-0.00427246,0.00849609,
1162,-0.00427246,0.00836182,
1164,-0.0164795,0.00840454,
1166,-0.00793457,0.00847168,
1168,0.0189209,0.00860596,
1170,-0.00671387,0.0086731,
1172,0.00427246,0.00870361,
1174,-0.000610352,0.0086731,
1176,-0.0134277,0.00878296,
1178,-0.00732422,0.00875854,
1180,0,0.00874634,
1182,-0.000610352,0.00846558,
1184,-0.00732422,0.00845337,
1186,-0.00732422,0.0083252,
1188,-0.0109863,0.00839844,
1190,0.0115967,0.0085022,
1192,-0.00793457,0.00842896,
1194,-0.00427246,0.00837402,
1196,-0.0164795,0.00852661,
1198,0.00915527,0.00852661,
1200,-0.00488281,0.00852051,
1202,-0.000610352,0.00844727,
1204,-0.0152588,0.0085144,
1206,-0.000610352,0.00847778,
1208,-0.000610352,0.00842896,
1210,-0.0189209,0.00857544,
1212,-0.00549316,0.00861206,
1214,-0.00427246,0.00864258,
1216,-0.00610352,0.0086731,
1218,-0.00732422,0.0086731,
1220,-0.0164795,0.00882568,
1222,-0.00732422,0.00884399,
1224,-0.00793457,0.0088562,
1226,0.00793457,0.00891724,
1228,-0.00610352,0.00892334,
1230,0.00793457,0.00886841,
1232,-0.00366211,0.00884399,
1234,-0.00366211,0.00875854,
1236,-0.0170898,0.00880737,
1238,0.00488281,0.00878296,
1240,-0.000610352,0.00862427,
1242,-0.0152588,0.00869751,
1244,-0.00183105,0.00858154,
1246,-0.00305176,0.00848999,
1248,-0.00671387,0.00848999,
1250,-0.0244141,0.00853882,
1252,-0.000610352,0.00840454,
1254,-0.0109863,0.00839233,
1256,-0.0128174,0.0085083,
1258,0.00366211,0.00853882,
1260,-0.00549316,0.00852051,
1262,0.00366211,0.00845947,
1264,-0.00305176,0.00838623,
1266,-0.0177002,0.00830078,
1268,-0.00488281,0.00813599,
1270,0.020752,0.00822144,
1272,-0.0231934,0.00826416,
1274,0.0244141,0.00828857,
1276,0.010376,0.00829468,
1278,-0.0396729,0.00857544,
1280,-0.00793457,0.00858765,
1282,0.0311279,0.00876465,
1284,0.00244141,0.00866089,
1286,-0.0335693,0.0088623,
1288,0.0170898,0.00901489,
1290,0.0164795,0.00900269,
1292,-0.0268555,0.00908203,
1294,-0.0146484,0.00914917,
1296,-0.0189209,0.00924683,
1298,0.0115967,0.00931396,
1300,-0.0213623,0.00949097,
1302,-0.0115967,0.00953979,
1304,-0.0152588,0.00967407,
1306,-0.0146484,0.00975342,
1308,-0.00305176,0.00975952,
1310,0.00915527,0.00983276,
1312,-0.0311279,0.0100891,
1314,-0.00549316,0.0100891,
1316,-0.0164795,0.0101868,
1318,-0.0201416,0.0103516,
1320,0.00732422,0.0102783,
1322,-0.00244141,0.0101013,
1324,-0.0421143,0.0104309,
1326,0.00305176,0.0103943,
1328,0.0170898,0.0104614,
1330,-0.0012207,0.0103882,
1332,-0.020752,0.0105408,
1334,0.012207,0.0104614,
1336,0.0274658,0.0106934,
1338,-0.00244141,0.0106812,
1340,-0.0317383,0.0109009,
1342,-0.0177002,0.0109497,
1344,-0.00976563,0.0110352,
1346,-0.00244141,0.0110535,
1348,0.000610352,0.0110229,
1350,-0.0195313,0.0112,
1352,-0.022583,0.0112061,
1354,-0.00732422,0.0112244,
1356,-0.00915527,0.0112976,
1358,-0.0128174,0.0113892,
1360,0.00610352,0.0114075,
1362,-0.020752,0.0115723,
1364,0.000610352,0.0114136,
1366,-0.010376,0.011438,
1368,-0.0115967,0.0113647,
1370,-0.0128174,0.0114258,
1372,0.000610352,0.0113892,
1374,0.0134277,0.0115173,
1376,-0.0158691,0.0115417,
1378,-0.0152588,0.0116211,
1380,-0.0115967,0.0117371,
1382,0.0256348,0.0119873,
1384,-0.00854492,0.0119995,
1386,-0.0164795,0.0120911,
1388,0.0152588,0.0121338,
1390,0.00305176,0.0120483,
1392,-0.00854492,0.0120544,
1394,0.012207,0.0121338,
1396,-0.0152588,0.0121216,
1398,0.0164795,0.0121948,
1400,0,0.012146,
1402,-0.00183105,0.0121582,
1404,0.0189209,0.0121948,
1406,-0.0299072,0.0124878,
1408,-0.0128174,0.0126099,
1410,-0.00183105,0.012439,
1412,-0.00732422,0.0124573,
1414,-0.0115967,0.0125305,
1416,-0.0292969,0.0127625,
1418,-0.00915527,0.0127808,
1420,-0.0115967,0.0127319,
1422,-0.00976563,0.0127563,
1424,-0.00427246,0.0127197,
1426,-0.0012207,0.0126526,
1428,0.00549316,0.0126465,
1430,0,0.0125671,
1432,0.000610352,0.0125366,
1434,0.00671387,0.0125671,
1436,-0.012207,0.0125183,
1438,-0.00915527,0.012561,
1440,-0.00549316,0.0126099,
1442,0,0.0124573,
1444,-0.00610352,0.0125,
1446,-0.00671387,0.0125366,
1448,-0.00854492,0.0125549,
1450,-0.0152588,0.0124634,
1452,0.00244141,0.0124817,
1454,-0.000610352,0.0123779,
1456,-0.00610352,0.0123108,
1458,-0.00976563,0.0123718,
1460,-0.00793457,0.0123962,
1462,-0.00427246,0.0124023,
1464,0.00732422,0.0124451,
1466,-0.0170898,0.012439,
1468,0.0158691,0.0125488,
1470,-0.00427246,0.012384,
1472,0.0152588,0.0123047,
1474,0.00244141,0.012085,
1476,-0.00610352,0.0120422,
1478,-0.0115967,0.0117615,
1480,0.00305176,0.0117126,
1482,-0.00183105,0.0114197,
1484,-0.0115967,0.0115112,
1486,-0.0164795,0.0113403,
1488,-0.00610352,0.0112305,
1490,-0.00976563,0.0111633,
1492,-0.0280762,0.0111755,
1494,0,0.0110291,
1496,0.0012207,0.0108521,
1498,-0.00488281,0.0107849,
1500,-0.022583,0.0107971,
1502,-0.00488281,0.01073,
1504,0.00488281,0.0106262,
1506,0.0146484,0.0106262,
1508,-0.0115967,0.0107117,
1510,-0.0177002,0.0107971,
1512,0.0012207,0.010498,
1514,0.0195313,0.0106384,
1516,-0.00427246,0.0105164,
1518,-0.0201416,0.0105164,
1520,-0.0292969,0.0107361,
1522,-0.00366211,0.0107483,
1524,0.00732422,0.0104004,
1526,0.00671387,0.010437,
1528,-0.0195313,0.0104614,
1530,-0.0140381,0.0105896,
1532,0.00366211,0.0104187,
1534,0.00366211,0.0103333,
1536,-0.012207,0.0101807,
1538,0.000610352,0.0101624,
1540,-0.00793457,0.00992432,
1542,-0.0128174,0.00987549,
1544,-0.0164795,0.00994263,
1546,-0.00854492,0.0100037,
1548,-0.0012207,0.0100098,
1550,-0.0170898,0.00998535,
1552,-0.00671387,0.00982666,
1554,0.00610352,0.00981445,
1556,-0.0250244,0.00997314,
1558,-0.00854492,0.00993042,
1560,-0.00793457,0.00994873,
1562,0.00976563,0.00983887,
1564,0.00549316,0.0098877,
1566,-0.0268555,0.0100525,
1568,-0.012207,0.0100586,
1570,-0.0012207,0.00994263,
1572,0.00244141,0.00996094,
1574,-0.00793457,0.00990601,
1576,-0.00244141,0.00977173,
1578,-0.00610352,0.00968018,
1580,0.000610352,0.00957031,
1582,-0.00183105,0.00933228,
1584,-0.00671387,0.00931396,
1586,-0.00671387,0.00921631,
1588,0.00915527,0.00915527,
1590,-0.0146484,0.00927124,
1592,-0.0012207,0.009198,
1594,-0.0158691,0.00923462,
1596,-0.00793457,0.00916138,
1598,-0.00549316,0.00905151,
1600,0.0115967,0.00916748,
1602,-0.0158691,0.00930786,
1604,-0.0115967,0.00923462,
1606,0.00244141,0.00895996,
1608,0.0012207,0.00884399,
1610,-0.0012207,0.00883789,
1612,-0.0152588,0.00891724,
1614,0.000610352,0.00880737,
1616,0.0146484,0.00866089,
1618,0.00427246,0.00861206,
1620,-0.0177002,0.0086731,
1622,-0.0115967,0.00869141,
1624,-0.00610352,0.00870972,
1626,-0.00427246,0.00874023,
1628,-0.012207,0.00880737,
1630,-0.0134277,0.00894165,
1632,-0.00732422,0.00900879,
1634,0.0158691,0.00910034,
1636,-0.0152588,0.00913086,
1638,-0.00610352,0.00910034,
1640,-0.0140381,0.00918579,
1642,-0.00915527,0.00927734,
1644,0.00793457,0.00929565,
1646,-0.0238037,0.00946655,
1648,-0.0152588,0.00953369,
1650,-0.0219727,0.00960083,
1652,-0.0244141,0.00982056,
1654,0.00915527,0.00990601,
1656,0,0.00984497,
1658,-0.0012207,0.00975952,
1660,-0.0128174,0.00980835,
1662,-0.00610352,0.00982666,
1664,0.0219727,0.00997314,
1666,0.00427246,0.00984497,
1668,0.00244141,0.00971069,
1670,-0.0195313,0.00986328,
1672,-0.00244141,0.00973511,
1674,-0.00610352,0.00977173,
1676,-0.00976563,0.00980835,
1678,-0.0140381,0.00983276,
1680,0.00427246,0.00984497,
1682,-0.0299072,0.0101257,
1684,-0.010376,0.0101135,
1686,-0.022583,0.0101746,
1688,0.0146484,0.01026,
1690,0.0012207,0.0101746,
1692,-0.0170898,0.0100647,
1694,-0.0274658,0.0103394,
1696,-0.000610352,0.0103333,
1698,-0.00732422,0.0103577,
1700,-0.012207,0.0102539,
1702,-0.0152588,0.0103577,
1704,0.00183105,0.0103271,
1706,0.00976563,0.0102783,
1708,-0.010376,0.0102661,
1710,-0.0183105,0.0102722,
1712,0.00366211,0.0102966,
1714,0.0183105,0.0102844,
1716,-0.00366211,0.0102783,
1718,-0.0286865,0.0103638,
1720,-0.00915527,0.0101624,
1722,-0.0012207,0.0101379,
1724,-0.00976563,0.0101624,
1726,-0.00732422,0.0101685,
1728,0.0115967,0.0100891,
1730,-0.00671387,0.0100159,
1732,-0.00488281,0.0100281,
1734,-0.00732422,0.0100647,
1736,-0.00610352,0.0100037,
1738,-0.00305176,0.0100281,
1740,-0.0134277,0.010083,
1742,-0.012207,0.0100769,
1744,-0.0213623,0.0101257,
1746,-0.022583,0.0102661,
1748,0.0158691,0.0104126,
1750,-0.00854492,0.0103271,
1752,-0.0238037,0.010498,
1754,0.0012207,0.0104492,
1756,-0.00732422,0.0102722,
1758,0.00488281,0.0102356,
1760,-0.00976563,0.0102539,
1762,-0.00915527,0.0102478,
1764,0.0256348,0.0104492,
1766,-0.0170898,0.0103516,
1768,-0.0134277,0.0103638,
1770,-0.00610352,0.0104126,
1772,0.00427246,0.0104309,
1774,-0.010376,0.0104553,
1776,-0.00366211,0.0104675,
1778,-0.012207,0.0105286,
1780,-0.00915527,0.010614,
1782,-0.00671387,0.0106628,
1784,0.0115967,0.0107117,
1786,-0.00183105,0.0106628,
1788,0.0170898,0.0107422,
1790,-0.00183105,0.010614,
1792,-0.00610352,0.0106628,
1794,0.0183105,0.0106873,
1796,-0.00549316,0.0106628,
1798,-0.0128174,0.0107361,
1800,-0.00427246,0.0106628,
1802,-0.00244141,0.0105286,
1804,-0.0109863,0.0105225,
1806,-0.00793457,0.0105774,
1808,-0.0109863,0.010675,
1810,-0.00305176,0.0106934,
1812,-0.0183105,0.0107239,
1814,0.0140381,0.0108582,
1816,0.00183105,0.01073,
1818,0,0.0106873,
1820,-0.0238037,0.0107483,
1822,-0.00427246,0.010675,
1824,-0.00488281,0.0106628,
1826,-0.0012207,0.0106323,
1828,-0.00427246,0.010553,
1830,-0.0201416,0.0106201,
1832,-0.0146484,0.0106934,
1834,-0.00854492,0.0106201,
1836,0.00732422,0.0105408,
1838,-0.020752,0.0106873,
1840,0.00732422,0.0106201,
1842,-0.00610352,0.0105896,
1844,-0.00366211,0.0105469,
1846,-0.0109863,0.0104187,
1848,-0.00488281,0.0103149,
1850,0.012207,0.0102173,
1852,-0.00183105,0.00999146,
1854,0.00549316,0.00995483,
1856,-0.00610352,0.0100159,
1858,-0.00183105,0.010022,
1860,0.0201416,0.0100952,
1862,0.00549316,0.0100891,
1864,-0.0305176,0.0101746,
1866,-0.00183105,0.0101501,
1868,-0.0012207,0.0101379,
1870,-0.0109863,0.0100525,
1872,-0.00854492,0.0101135,
1874,0.00549316,0.0101074,
1876,-0.0164795,0.0101746,
1878,-0.020752,0.0102417,
1880,0.00305176,0.0102295,
1882,0.0140381,0.0100708,
1884,-0.0164795,0.0101318,
1886,-0.00915527,0.00999756,
1888,0.00366211,0.0098877,
1890,-0.0195313,0.0100708,
1892,0.00976563,0.00999756,
1894,0.00671387,0.00979004,
1896,-0.00671387,0.00985107,
1898,-0.00671387,0.00984497,
1900,-0.0128174,0.00985107,
1902,0.00610352,0.00975952,
1904,-0.00244141,0.00976563,
1906,-0.0152588,0.00982056,
1908,-0.00976563,0.00981445,
1910,0.00488281,0.00968018,
1912,-0.020752,0.00985107,
1914,-0.00244141,0.00969238,
1916,-0.00366211,0.00969238,
1918,0.022583,0.00963135,
1920,0.0140381,0.00968018,
1922,0.00244141,0.00969238,
1924,-0.0164795,0.00975952,
1926,0.0012207,0.00969849,
1928,0.00732422,0.00965576,
1930,0.00854492,0.00967407,
1932,-0.032959,0.00995483,
1934,-0.0140381,0.010022,
1936,-0.0115967,0.0100769,
1938,-0.00366211,0.010083,
1940,-0.00671387,0.0100159,
1942,-0.00244141,0.00991821,
1944,0.00610352,0.00976563,
1946,-0.0201416,0.00974121,
1948,-0.000610352,0.00958862,
1950,-0.00427246,0.0095459,
1952,-0.0158691,0.00946655,
1954,-0.00671387,0.00952148,
1956,-0.0146484,0.00959473,
1958,-0.0146484,0.00969238,
1960,-0.0109863,0.00970459,
1962,-0.00671387,0.00968018,
1964,0.00305176,0.00945435,
1966,-0.00366211,0.00932007,
1968,-0.00366211,0.00922241,
1970,0.00671387,0.00922852,
1972,-0.00976563,0.00928345,
1974,-0.00427246,0.00922241,
1976,-0.00427246,0.00922852,
1978,0,0.00910645,
1980,-0.0170898,0.00918579,
1982,0.00915527,0.00921021,
1984,0.000610352,0.00910034,
1986,-0.000610352,0.00908813,
1988,0.0183105,0.00910034,
1990,-0.0231934,0.00931396,
1992,0.00183105,0.00927124,
1994,0.022583,0.00931396,
1996,-0.00549316,0.00931396,
1998,-0.00793457,0.00926514,
2000,-0.0115967,0.00933838,
2002,-0.0109863,0.00942383,
2004,0.0012207,0.00932617,
2006,0,0.00924683,
2008,0.00244141,0.00916138,
2010,-0.0231934,0.00936279,
2012,-0.0128174,0.00930786,
2014,-0.00305176,0.009198,
2016,-0.00244141,0.0092041,
2018,-0.0012207,0.00921631,
2020,-0.0341797,0.00932007,
2022,-0.000610352,0.00928345,
2024,-0.00854492,0.00932007,
2026,-0.00488281,0.00935669,
2028,0.012207,0.00943604,
2030,-0.0262451,0.00949707,
2032,-0.0158691,0.00950928,
2034,0.00305176,0.00945435,
2036,-0.0115967,0.00949707,
2038,-0.00610352,0.00935059,
2040,-0.0183105,0.00946045,
2042,-0.020752,0.00960693,
2044,-0.00732422,0.00964355,
2046,-0.0201416,0.00973511,
2048,-0.00427246,0.009729,
2050,0.00244141,0.00963135,
2052,0.0219727,0.00983276,
2054,-0.012207,0.0098999,
2056,-0.0012207,0.00985107,
2058,0.0280762,0.0101135,
2060,0.00427246,0.00995483,
2062,-0.0231934,0.0101318,
2064,0.00549316,0.00988159,
2066,-0.0140381,0.0100037,
2068,-0.00976563,0.0100891,
2070,-0.00488281,0.0100281,
2072,-0.0286865,0.0102295,
2074,-0.0195313,0.0103699,
2076,-0.00610352,0.0102661,
2078,-0.00244141,0.010083,
2080,-0.0158691,0.0102112,
2082,-0.0012207,0.010083,
2084,-0.00732422,0.00999146,
2086,-0.0140381,0.0100403,
2088,-0.000610352,0.0100098,
2090,0.00732422,0.0098877,
2092,-0.00549316,0.00984497,
2094,-0.0201416,0.00997925,
2096,0.00305176,0.00994263,
2098,0,0.00987549,
2100,-0.012207,0.00986938,
2102,-0.00854492,0.0098938,
2104,-0.0012207,0.00988159,
2106,-0.0195313,0.00992432,
2108,-0.00427246,0.00986938,
2110,0.00976563,0.00991821,
2112,-0.0134277,0.00984497,
2114,0.00671387,0.0098877,
2116,-0.0012207,0.00986328,
2118,-0.00976563,0.00973511,
2120,0.00244141,0.00961914,
2122,-0.00183105,0.00961304,
2124,0,0.00944824,
2126,-0.00244141,0.00946045,
2128,0.010376,0.00949097,
2130,-0.010376,0.00950928,
2132,-0.0231934,0.00941162,
2134,-0.000610352,0.00927734,
2136,0.000610352,0.00916748,
2138,-0.0128174,0.00925903,
2140,-0.0299072,0.00949097,
2142,-0.0140381,0.00960693,
2144,-0.00671387,0.00961304,
2146,-0.0256348,0.00966797,
2148,0,0.00966187,
2150,-0.0140381,0.00975952,
2152,-0.012207,0.0097229,
2154,0.00549316,0.00971069,
2156,0.00549316,0.00961914,
2158,-0.00915527,0.00956421,
2160,-0.0115967,0.00957031,
2162,0.0115967,0.00961914,
2164,0.00305176,0.00961914,
2166,-0.00976563,0.00968018,
2168,-0.0115967,0.00975952,
2170,0.00244141,0.0097168,
2172,-0.0134277,0.00975342,
2174,-0.0115967,0.00982666,
2176,0.000610352,0.00979004,
2178,-0.010376,0.0098938,
2180,-0.00793457,0.00980225,
2182,-0.0189209,0.0098999,
2184,0.00671387,0.00996094,
2186,-0.0134277,0.0100891,
2188,0.0012207,0.00991821,
2190,0.000610352,0.00969238,
2192,-0.00854492,0.00975952,
2194,0.0170898,0.00970459,
2196,-0.00915527,0.00974121,
2198,0.0146484,0.00980835,
2200,0.0012207,0.00970459,
2202,-0.0134277,0.009729,
2204,0.0012207,0.009729,
2206,-0.0115967,0.00984497,
2208,-0.0115967,0.00993652,
2210,-0.00671387,0.00977173,
2212,-0.0219727,0.00986328,
2214,0.00305176,0.00986328,
2216,-0.022583,0.0100647,
2218,-0.00915527,0.010144,
2220,-0.010376,0.00990601,
2222,-0.0183105,0.010083,
2224,0.00244141,0.010022,
2226,-0.0140381,0.0101135,
2228,-0.0140381,0.0101318,
2230,-0.00854492,0.00995483,
2232,0.00854492,0.00988159,
2234,-0.00488281,0.0098999,
2236,-0.0146484,0.00993042,
2238,-0.00976563,0.00996704,
2240,0.0115967,0.0098999,
2242,0.00610352,0.00975342,
2244,-0.012207,0.00980225,
2246,-0.0115967,0.0097168,
2248,-0.00366211,0.00971069,
2250,-0.0140381,0.00982666,
2252,-0.00793457,0.00968628,
2254,0.00671387,0.00963135,
2256,-0.0164795,0.00978394,
2258,-0.00549316,0.00955811,
2260,-0.00610352,0.00957642,
2262,-0.00671387,0.00941162,
2264,-0.00610352,0.00941772,
2266,-0.00488281,0.00932617,
2268,0.00976563,0.00932617,
2270,-0.00488281,0.00932617,
2272,-0.0152588,0.00919189,
2274,0.010376,0.00910034,
2276,0.0244141,0.00928345,
2278,-0.0183105,0.00944214,
2280,-0.0164795,0.00944824,
2282,0.00793457,0.00951538,
2284,0.00549316,0.00949707,
2286,-0.012207,0.00947876,
2288,-0.00244141,0.00949707,
2290,-0.0115967,0.00953979,
2292,-0.0183105,0.00966797,
2294,0.000610352,0.00947266,
2296,-0.012207,0.00956421,
2298,-0.00183105,0.00958252,
2300,-0.00366211,0.00949707,
2302,0.00854492,0.00949707,
2304,-0.0177002,0.00966187,
2306,-0.010376,0.00957031,
2308,-0.00427246,0.00957031,
2310,-0.0012207,0.00948486,
2312,-0.00854492,0.00943604,
2314,-0.010376,0.00947266,
2316,-0.00244141,0.00948486,
2318,-0.00183105,0.00940552,
2320,-0.00671387,0.00944824,
2322,-0.0128174,0.00955811,
2324,0.00427246,0.00960083,
2326,-0.00366211,0.00961304,
2328,0.00549316,0.00956421,
2330,-0.0170898,0.00963135,
2332,0.0164795,0.00956421,
2334,-0.0170898,0.009729,
2336,-0.00610352,0.00978394,
2338,-0.0170898,0.00982666,
2340,-0.00549316,0.00958252,
2342,-0.00976563,0.00953979,
2344,-0.0268555,0.00974121,
2346,-0.0274658,0.00975952,
2348,-0.000610352,0.00976563,
2350,-0.0158691,0.00978394,
2352,-0.00427246,0.00970459,
2354,-0.00244141,0.00967407,
2356,-0.0195313,0.00981445,
2358,-0.0012207,0.00973511,
2360,0.0195313,0.00981445,
2362,0.020752,0.00990601,
2364,-0.0115967,0.00999146,
2366,-0.0195313,0.0100891,
2368,0.010376,0.0100769,
2370,-0.00427246,0.0100952,
2372,0.00366211,0.00999756,
2374,0.000610352,0.0098877,
2376,-0.010376,0.00998535,
2378,-0.00854492,0.00996704,
2380,-0.00549316,0.00994263,
2382,0.010376,0.00985718,
2384,-0.00427246,0.00983276,
2386,-0.00732422,0.00977173,
2388,0.000610352,0.00976563,
2390,0.00305176,0.00979004,
2392,-0.00183105,0.0097229,
2394,-0.00610352,0.00961304,
2396,-0.0115967,0.00963745,
2398,0.00183105,0.00950928,
2400,0.000610352,0.00950317,
2402,-0.0189209,0.00955811,
2404,0.00732422,0.00961914,
2406,-0.0213623,0.0097168,
2408,-0.0115967,0.0097168,
2410,-0.000610352,0.00965576,
2412,0.00671387,0.00950317,
2414,-0.0231934,0.00970459,
2416,-0.0213623,0.00969238,
2418,-0.00915527,0.00969238,
2420,-0.000610352,0.00959473,
2422,-0.0250244,0.00966187,
2424,-0.00610352,0.00969849,
2426,-0.0213623,0.00977173,
2428,-0.00732422,0.00970459,
2430,-0.022583,0.00984497,
2432,0.00244141,0.00978394,
2434,-0.0012207,0.00974731,
2436,-0.00427246,0.00964355,
2438,0.0109863,0.00965576,
2440,-0.00732422,0.00961304,
2442,-0.00427246,0.00959473,
2444,-0.00488281,0.00952148,
2446,-0.0146484,0.009552,
2448,-0.00488281,0.00956421,
2450,-0.0183105,0.00960693,
2452,-0.0128174,0.00965576,
2454,-0.00427246,0.00963135,
2456,-0.0128174,0.00959473,
2458,-0.0134277,0.00967407,
2460,-0.00244141,0.00963745,
2462,-0.00305176,0.00960083,
2464,0.0152588,0.00969238,
2466,-0.0262451,0.00990601,
2468,0.00915527,0.0098999,
2470,0.00244141,0.00987549,
2472,-0.0115967,0.00983887,
2474,-0.0012207,0.00974731,
2476,-0.0115967,0.00961914,
2478,-0.00732422,0.00950928,
2480,0.0012207,0.00935669,
2482,-0.0146484,0.00942383,
2484,-0.022583,0.00959473,
2486,-0.0177002,0.00964966,
2488,0.00244141,0.00964966,
2490,-0.0164795,0.00969849,
2492,-0.0128174,0.00964355,
2494,-0.0134277,0.00977173,
2496,0.0262451,0.00991211,
2498,-0.00366211,0.00993042,
2500,0.00793457,0.00997314,
2502,-0.0195313,0.010083,
2504,0.012207,0.0100281,
2506,0.00549316,0.00997925,
2508,-0.0250244,0.0101868,
2510,-0.00732422,0.0102478,
2512,-0.0128174,0.0102905,
2514,-0.00976563,0.0102844,
2516,-0.00976563,0.0103577,
2518,-0.0213623,0.010553,
2520,0.00915527,0.0105774,
2522,0.0152588,0.0106018,
2524,-0.0146484,0.0107056,
2526,-0.0170898,0.0108398,
2528,0.020752,0.0109924,
2530,-0.00793457,0.0109009,
2532,-0.012207,0.0108582,
2534,-0.00610352,0.0107483,
2536,-0.0146484,0.0108337,
2538,-0.0158691,0.0108215,
2540,-0.00732422,0.0108398,
2542,-0.0158691,0.0109009,
2544,-0.0152588,0.0107849,
2546,-0.020752,0.0107178,
2548,-0.00183105,0.01073,
2550,-0.00854492,0.0106567,
2552,-0.00366211,0.0106506,
2554,-0.0189209,0.0108154,
2556,-0.0134277,0.0107544,
2558,0.000610352,0.0107483,
2560,0,0.010553,
2562,-0.0201416,0.0105469,
2564,-0.0012207,0.0104431,
2566,-0.012207,0.0103699,
2568,-0.0213623,0.0104797,
2570,0.00549316,0.0104919,
2572,0.00366211,0.0104919,
2574,-0.00427246,0.0105286,
2576,-0.0140381,0.0105652,
2578,0.0134277,0.010614,
2580,-0.00488281,0.0106079,
2582,-0.00549316,0.0105591,
2584,-0.0109863,0.0106262,
2586,-0.012207,0.010675,
2588,-0.00671387,0.0107361,
2590,-0.0170898,0.0108765,
2592,-0.00244141,0.0108826,
2594,-0.010376,0.0109253,
2596,-0.0128174,0.0109375,
2598,-0.00488281,0.010968,
2600,0.00976563,0.0110596,
2602,-0.0115967,0.0109863,
2604,-0.0012207,0.0109253,
2606,0.00488281,0.0107605,
2608,-0.00732422,0.0107178,
2610,-0.000610352,0.0107178,
2612,-0.00549316,0.0107056,
2614,0.000610352,0.0104797,
2616,-0.0146484,0.0104126,
2618,-0.00793457,0.0104004,
2620,-0.00793457,0.0104736,
2622,-0.012207,0.0103455,
2624,-0.00854492,0.0103699,
2626,-0.00854492,0.0102417,
2628,-0.00610352,0.0102295,
2630,-0.00244141,0.0100281,
2632,-0.0140381,0.010144,
2634,-0.00671387,0.010199,
2636,-0.00366211,0.0101929,
2638,0.00732422,0.0101563,
2640,-0.0128174,0.0102112,
2642,-0.00915527,0.01026,
2644,-0.00854492,0.0102966,
2646,-0.00427246,0.0101929,
2648,0.0128174,0.0102722,
2650,-0.00305176,0.0101196,
2652,-0.00793457,0.0100708,
2654,0.00976563,0.0101257,
2656,0.00732422,0.0100708,
2658,-0.0109863,0.0100464,
2660,0.000610352,0.0100281,
2662,-0.00549316,0.0100525,
2664,-0.00610352,0.00996094,
2666,-0.0164795,0.00986328,
2668,-0.0134277,0.00990601,
2670,-0.0115967,0.00999756,
2672,-0.0140381,0.010022,
2674,-0.0115967,0.0101257,
2676,-0.022583,0.0102356,
2678,-0.00366211,0.010199,
2680,-0.00427246,0.0102295,
2682,-0.0134277,0.0102173,
2684,0.0012207,0.0100037,
2686,0.00366211,0.00986328,
2688,0.0012207,0.00985107,
2690,-0.0189209,0.00987549,
2692,-0.00244141,0.00977173,
2694,-0.00854492,0.0097229,
2696,0.0012207,0.00947266,
2698,-0.00244141,0.00946045,
2700,-0.0244141,0.00962524,
2702,0.00732422,0.00950317,
2704,-0.00854492,0.00946655,
2706,-0.0164795,0.00957642,
2708,0.00183105,0.00934448,
2710,-0.00427246,0.00931396,
2712,-0.00488281,0.00923462,
2714,-0.0128174,0.00926514,
2716,-0.00427246,0.00921021,
2718,-0.00183105,0.00901489,
2720,-0.00183105,0.00894165,
2722,0.00427246,0.00883179,
2724,0.00610352,0.00874634,
2726,-0.0244141,0.00881958,
2728,0.00915527,0.00870361,
2730,-0.00427246,0.00866699,
2732,0.010376,0.00864868,
2734,-0.0109863,0.00869751,
2736,-0.022583,0.00877686,
2738,0.00244141,0.00864258,
2740,-0.010376,0.0086731,
2742,-0.00244141,0.00853882,
2744,0.00183105,0.00840454,
2746,-0.0231934,0.00842896,
2748,-0.012207,0.00853271,
2750,0.0012207,0.00845947,
2752,-0.00244141,0.00844727,
2754,-0.00976563,0.00835571,
2756,-0.0128174,0.00834961,
2758,-0.012207,0.00846558,
2760,-0.00610352,0.00852661,
2762,-0.010376,0.00842896,
2764,0.00366211,0.00845337,
2766,-0.0158691,0.00848999,
2768,-0.00793457,0.00835571,
2770,0.00732422,0.00837402,
2772,-0.012207,0.00845947,
2774,-0.000610352,0.00842285,
2776,0.00305176,0.00831299,
2778,0.0183105,0.00836182,
2780,0.0012207,0.0083252,
2782,-0.00915527,0.00836182,
2784,-0.00488281,0.00830078,
2786,0.00732422,0.00825195,
2788,0.0195313,0.00838013,
2790,-0.0244141,0.00845337,
2792,-0.020752,0.00863647,
2794,-0.0109863,0.00864258,
2796,-0.00549316,0.00856934,
2798,-0.00244141,0.00854492,
2800,-0.00488281,0.00849609,
2802,0.00305176,0.00841064,
2804,0.0109863,0.0085083,
2806,-0.0292969,0.00875244,
2808,0.00549316,0.00873413,
2810,-0.00427246,0.00877075,
2812,-0.00549316,0.00877075,
2814,0.00244141,0.00878906,
2816,-0.0164795,0.00880737,
2818,-0.0146484,0.00887451,
2820,-0.00610352,0.0088562,
2822,-0.0170898,0.00890503,
2824,-0.0012207,0.00883179,
2826,-0.000610352,0.00875244,
2828,-0.00854492,0.00877686,
2830,0.0012207,0.00876465,
2832,-0.00427246,0.00866699,
2834,-0.00427246,0.00864258,
2836,-0.00366211,0.00864258,
2838,0.0128174,0.00869751,
2840,-0.00183105,0.00858765,
2842,-0.00549316,0.00855103,
2844,0.00976563,0.00856323,
2846,-0.0183105,0.00870361,
2848,-0.000610352,0.00858154,
2850,0.00488281,0.00859985,
2852,-0.00488281,0.00856934,
2854,0.00854492,0.00855713,
2856,-0.00854492,0.00856934,
2858,-0.000610352,0.00846558,
2860,0.00183105,0.00847778,
2862,0.0012207,0.00843506,
2864,0.0012207,0.00838623,
2866,-0.012207,0.00834351,
2868,-0.012207,0.0083313,
2870,-0.0115967,0.0083313,
2872,-0.000610352,0.00819702,
2874,-0.012207,0.00820313,
2876,0.00183105,0.00799561,
2878,0.0109863,0.00806885,
2880,0.00488281,0.00807495,
2882,-0.012207,0.00806274,
2884,0.0268555,0.00831909,
2886,-0.00549316,0.0083374,
2888,-0.010376,0.00842896,
2890,-0.00305176,0.00827026,
2892,-0.00915527,0.0083374,
2894,-0.00305176,0.00828247,
2896,-0.00671387,0.0083374,
2898,-0.012207,0.00843506,
2900,-0.0268555,0.00845947,
2902,0.0109863,0.00849609,
2904,0.0164795,0.00857544,
2906,-0.00976563,0.0085083,
2908,-0.0128174,0.00861816,
2910,0.00793457,0.00865479,
2912,0.00549316,0.00866089,
2914,-0.0244141,0.00877686,
2916,0.00305176,0.00876465,
2918,0.00915527,0.00883789,
2920,-0.0158691,0.00897827,
2922,0.0012207,0.00894775,
2924,0.0158691,0.00904541,
2926,0.0128174,0.00892944,
2928,-0.00732422,0.00891113,
2930,0.000610352,0.00887451,
2932,0.0219727,0.00899048,
2934,0.00244141,0.00890503,
2936,-0.0170898,0.0088501,
2938,-0.0012207,0.00883789,
2940,-0.00915527,0.00882568,
2942,-0.0201416,0.00900269,
2944,-0.00610352,0.00904541,
2946,-0.0299072,0.00911255,
2948,-0.0140381,0.00913086,
2950,-0.0231934,0.00935059,
2952,-0.00549316,0.0093811,
2954,-0.0109863,0.00939331,
2956,-0.0256348,0.00952148,
2958,-0.00732422,0.00947266,
2960,0.0128174,0.00953979,
2962,-0.0250244,0.00968628,
2964,-0.00976563,0.00974731,
2966,0.00427246,0.00963135,
2968,-0.00488281,0.00960083,
2970,-0.00549316,0.00958252,
2972,-0.0280762,0.00974121,
2974,-0.00610352,0.00979614,
2976,-0.00915527,0.00985718,
2978,-0.0170898,0.00984497,
2980,-0.0134277,0.00996704,
2982,-0.0152588,0.0100281,
2984,-0.0183105,0.0101624,
2986,0.00793457,0.0101685,
2988,-0.000610352,0.00997925,
2990,-0.0195313,0.00993042,
2992,0.0012207,0.00973511,
2994,0.00305176,0.00965576,
2996,0.00183105,0.00961914,
2998,0.0115967,0.00971069,
3000,-0.00915527,0.00975342,
3002,0,0.0097229,
3004,-0.0012207,0.00962524,
3006,-0.00183105,0.00935059,
3008,-0.00854492,0.0093811,
3010,-0.0152588,0.00949097,
3012,0.00244141,0.00946045,
3014,-0.00183105,0.00945435,
3016,-0.0158691,0.00944824,
3018,-0.0128174,0.00942993,
3020,0.00183105,0.00938721,
3022,0.0140381,0.00935669,
3024,-0.00976563,0.00944214,
3026,0,0.00943604,
3028,-0.00427246,0.00939331,
3030,0.00732422,0.00945435,
3032,-0.00915527,0.00950317,
3034,-0.00915527,0.009552,
3036,0.00610352,0.00957642,
3038,0.0170898,0.00961914,
3040,-0.0238037,0.00983887,
3042,-0.0140381,0.00992432,
3044,0.00366211,0.00986328,
3046,-0.0134277,0.00981445,
3048,-0.0115967,0.00992432,
3050,-0.0164795,0.0100403,
3052,-0.0238037,0.0102295,
3054,-0.010376,0.0102478,
3056,-0.00183105,0.0101807,
3058,-0.00427246,0.0102173,
3060,0,0.010199,
3062,0.00427246,0.0102295,
3064,0.000610352,0.0102234,
3066,-0.0134277,0.0102356,
3068,0.00732422,0.0101868,
3070,0.00427246,0.0101135,
3072,-0.0152588,0.01026,
3074,-0.00427246,0.0101807,
3076,-0.00305176,0.0101929,
3078,0.010376,0.0101868,
3080,-0.0231934,0.0103699,
3082,-0.00305176,0.0102783,
3084,0.00854492,0.0100952,
3086,0.012207,0.0101624,
3088,-0.0256348,0.0103149,
3090,-0.0195313,0.0104797,
3092,-0.00732422,0.0104614,
3094,-0.0140381,0.0105713,
3096,-0.00305176,0.0105347,
3098,-0.00244141,0.010437,
3100,-0.0158691,0.0103271,
3102,0.00366211,0.0102539,
3104,0.00305176,0.0101196,
3106,-0.010376,0.0101257,
3108,-0.00854492,0.010083,
3110,0.0244141,0.0102478,
3112,0.00488281,0.0102417,
3114,-0.0134277,0.0101318,
3116,-0.0128174,0.0102295,
3118,0,0.0101379,
3120,-0.0164795,0.010144,
3122,-0.00915527,0.0102234,
3124,0.00854492,0.0101501,
3126,-0.0134277,0.0101563,
3128,-0.0201416,0.0102844,
3130,-0.0140381,0.0104187,
3132,0.0012207,0.0102112,
3134,-0.0109863,0.0102966,
3136,0.00366211,0.0101624,
3138,-0.0012207,0.0101624,
3140,-0.0140381,0.0102112,
3142,0.000610352,0.0100159,
3144,-0.0146484,0.0101013,
3146,-0.020752,0.0100098,
3148,0,0.00986938,
3150,-0.0152588,0.00979004,
3152,-0.0183105,0.00991821,
3154,-0.00854492,0.0098938,
3156,-0.0262451,0.0098999,
3158,-0.0128174,0.00995483,
3160,0.012207,0.00994873,
3162,-0.00244141,0.0097229,
3164,-0.00610352,0.00968628,
3166,-0.0109863,0.00975342,
3168,-0.00976563,0.00980225,
3170,-0.00793457,0.00982666,
3172,-0.010376,0.00964966,
3174,-0.0152588,0.00974121,
3176,-0.0183105,0.00983276,
3178,-0.00183105,0.00968018,
3180,0.00305176,0.00957642,
3182,-0.000610352,0.00942993,
3184,-0.00976563,0.00934448,
3186,-0.00427246,0.00930786,
3188,0.00793457,0.0093811,
3190,-0.00610352,0.00924683,
3192,-0.00732422,0.00930786,
3194,-0.00732422,0.00935059,
3196,-0.0164795,0.00949707,
3198,-0.00427246,0.00942383,
3200,-0.00305176,0.00936279,
3202,-0.00732422,0.00943604,
3204,-0.00427246,0.00946655,
3206,-0.00854492,0.00953369,
3208,0,0.00944824,
3210,-0.00305176,0.00932617,
3212,-0.0109863,0.00941162,
3214,0.000610352,0.00939941,
3216,-0.00427246,0.00928345,
3218,-0.0201416,0.00935669,
3220,-0.00915527,0.00942993,
3222,0.00305176,0.00932007,
3224,-0.00610352,0.00928345,
3226,-0.0189209,0.00947266,
3228,-0.000610352,0.00943604,
3230,-0.0164795,0.00952759,
3232,-0.00366211,0.00947266,
3234,-0.00854492,0.00946655,
3236,0.00244141,0.00942993,
3238,0.00732422,0.00933228,
3240,-0.0109863,0.0092041,
3242,-0.0134277,0.009198,
3244,-0.000610352,0.00916748,
3246,-0.00305176,0.00906372,
3248,-0.00366211,0.00898438,
3250,-0.0128174,0.00894775,
3252,-0.00549316,0.00876465,
3254,-0.010376,0.00876465,
3256,0.00427246,0.00878906,
3258,0.00610352,0.00880737,
3260,0.00183105,0.00882568,
3262,0.00183105,0.00880127,
3264,0.00671387,0.0088623,
3266,-0.0128174,0.0088562,
3268,-0.0262451,0.00904541,
3270,0.0115967,0.00911865,
3272,-0.00976563,0.00906372,
3274,-0.0213623,0.00923462,
3276,-0.0195313,0.00939941,
3278,-0.00366211,0.00933228,
3280,-0.0146484,0.00924683,
3282,-0.00244141,0.00924072,
3284,-0.0164795,0.00932007,
3286,-0.0115967,0.00931396,
3288,0.00549316,0.00911255,
3290,-0.0128174,0.00904541,
3292,-0.0164795,0.00913696,
3294,-0.0012207,0.00900879,
3296,-0.00854492,0.00906372,
3298,-0.00732422,0.00911255,
3300,-0.0152588,0.00910645,
3302,0.00244141,0.00909424,
3304,-0.00549316,0.00911865,
3306,-0.0158691,0.00917358,
3308,0.00305176,0.00911865,
3310,-0.00366211,0.00891113,
3312,-0.00244141,0.00888672,
3314,-0.00366211,0.00878906,
3316,-0.00671387,0.00872803,
3318,-0.00183105,0.00874634,
3320,0.0128174,0.00870972,
3322,-0.00732422,0.00869141,
3324,-0.00549316,0.00866089,
3326,-0.00610352,0.00858765,
3328,0.00549316,0.00844116,
3330,0.00488281,0.00834961,
3332,-0.00854492,0.00842285,
3334,-0.00427246,0.00835571,
3336,0.00244141,0.00834351,
3338,0,0.0083313,
3340,-0.0128174,0.00831909,
3342,-0.00610352,0.00837402,
3344,0.0134277,0.00836182,
3346,-0.00793457,0.00823364,
3348,-0.0134277,0.00836792,
3350,-0.00183105,0.00823364,
3352,0.00305176,0.00808105,
3354,0.0256348,0.00825195,
3356,0.00793457,0.00806885,
3358,-0.00915527,0.00803223,
3360,-0.00549316,0.00796509,
3362,-0.0177002,0.00811768,
3364,0.010376,0.0081604,
3366,-0.00610352,0.00811157,
3368,-0.020752,0.00822144,
3370,-0.020752,0.00834961,
3372,-0.0274658,0.00852051,
3374,-0.00488281,0.00841675,
3376,0.00732422,0.00830688,
3378,-0.0146484,0.00843506,
3380,-0.00183105,0.00842285,
3382,-0.00549316,0.00847168,
3384,0.00610352,0.00843506,
3386,-0.00671387,0.00845947,
3388,-0.00305176,0.00841064,
3390,-0.00427246,0.00839233,
3392,-0.00244141,0.00834351,
3394,0.000610352,0.00827637,
3396,-0.00183105,0.00812988,
3398,-0.00488281,0.00813599,
3400,-0.00366211,0.00814209,
3402,0.00366211,0.00810547,
3404,-0.00183105,0.00808105,
3406,0,0.00799561,
3408,0,0.00799561,
3410,-0.0109863,0.00807495,
3412,-0.00854492,0.00805054,
3414,0.0134277,0.00817871,
3416,-0.0109863,0.00824585,
3418,-0.0177002,0.00822144,
3420,-0.00854492,0.00821533,
3422,-0.0115967,0.00830078,
3424,-0.00488281,0.00828857,
3426,-0.00793457,0.00817871,
3428,-0.00366211,0.00820923,
3430,-0.00305176,0.00807495,
3432,0.00671387,0.00810547,
3434,0.010376,0.00812378,
3436,-0.0170898,0.00827026,
3438,-0.00183105,0.00821533,
3440,-0.0115967,0.00822144,
3442,-0.00427246,0.00812988,
3444,0.00183105,0.00814209,
3446,-0.0128174,0.00823975,
3448,-0.0256348,0.00845947,
3450,-0.020752,0.00853882,
3452,0.00183105,0.0085022,
3454,-0.00183105,0.00841675,
3456,-0.00976563,0.00847168,
3458,-0.0201416,0.00861206,
3460,-0.0140381,0.00873413,
3462,-0.012207,0.00883789,
3464,-0.000610352,0.00877686,
3466,-0.0189209,0.00883789,
3468,-0.00915527,0.00866699,
3470,-0.00732422,0.00862427,
3472,-0.0115967,0.00864258,
3474,0.00305176,0.00845947,
3476,-0.00366211,0.00830078,
3478,0,0.00826416,
3480,-0.00366211,0.0081543,
3482,0.00549316,0.00818481,
3484,-0.0195313,0.00821533,
3486,-0.0012207,0.00811157,
3488,0.00610352,0.00811768,
3490,-0.0274658,0.00826416,
3492,0.0012207,0.00811157,
3494,-0.0109863,0.00820923,
3496,-0.012207,0.00824585,
3498,0.00366211,0.00820923,
3500,-0.00976563,0.0081543,
3502,0.0012207,0.00814209,
3504,0.00488281,0.00813599,
3506,-0.00976563,0.00807495,
3508,0.00854492,0.00812988,
3510,0.00366211,0.00812988,
3512,-0.0152588,0.00825806,
3514,0.0128174,0.00834961,
3516,0,0.00828247,
3518,-0.00244141,0.00828857,
3520,0.00732422,0.00823364,
3522,-0.00549316,0.00821533,
3524,-0.00671387,0.00822754,
3526,0.00671387,0.00823364,
3528,-0.00610352,0.00823975,
3530,0.00183105,0.00820923,
3532,0.00366211,0.0081604,
3534,-0.00549316,0.00817261,
3536,-0.0152588,0.00830078,
3538,0.012207,0.00842285,
3540,-0.00976563,0.00839233,
3542,-0.012207,0.00845337,
3544,-0.00915527,0.00841064,
3546,-0.0128174,0.00845947,
3548,0.00366211,0.00836182,
3550,-0.0201416,0.00854492,
3552,-0.0189209,0.00870361,
3554,-0.0146484,0.00859375,
3556,0.00427246,0.00855713,
3558,-0.0152588,0.00861816,
3560,-0.0140381,0.00870361,
3562,-0.0134277,0.00866089,
3564,-0.00915527,0.00864868,
3566,-0.00976563,0.0086853,
3568,-0.010376,0.00858154,
3570,0.0012207,0.00838623,
3572,0.00183105,0.00812988,
3574,-0.0170898,0.00825195,
3576,-0.00305176,0.00820923,
3578,-0.00671387,0.00812988,
3580,-0.0128174,0.00823975,
3582,0.00183105,0.00820313,
3584,0.0012207,0.0081543,
3586,-0.0146484,0.00823364,
3588,-0.012207,0.0083252,
3590,-0.00549316,0.0083374,
3592,0.00244141,0.0083374,
3594,0.0109863,0.00844116,
3596,-0.000610352,0.00842896,
3598,0,0.00838013,
3600,-0.0354004,0.00869751,
3602,0.0012207,0.0086731,
3604,0.010376,0.00875854,
3606,-0.0146484,0.00890503,
3608,-0.0201416,0.00910645,
3610,-0.0256348,0.00925293,
3612,-0.00915527,0.00925903,
3614,0.00671387,0.00919189,
3616,-0.0134277,0.00921631,
3618,0,0.00903931,
3620,-0.0109863,0.00906372,
3622,-0.0146484,0.00909424,
3624,-0.000610352,0.00905151,
3626,-0.0012207,0.00898438,
3628,-0.00671387,0.00901489,
3630,-0.0158691,0.00914307,
3632,-0.00732422,0.00914917,
3634,0.00793457,0.00912476,
3636,-0.0268555,0.00922241,
3638,0.000610352,0.00921021,
3640,0.00549316,0.00914917,
3642,-0.010376,0.00921021,
3644,-0.00549316,0.00924683,
3646,-0.00183105,0.00913696,
3648,-0.00549316,0.00893555,
3650,-0.0164795,0.00889282,
3652,0.00183105,0.00889282,
3654,-0.0109863,0.00898438,
3656,-0.00732422,0.00895996,
3658,-0.00793457,0.00883789,
3660,0.00488281,0.00874634,
3662,-0.0219727,0.00884399,
3664,0.00305176,0.00886841,
3666,-0.0177002,0.0088562,
3668,0.00488281,0.00881348,
3670,0.00244141,0.00876465,
3672,-0.00610352,0.00870972,
3674,-0.00732422,0.00875244,
3676,0.00305176,0.00874634,
3678,-0.00183105,0.00876465,
3680,-0.00610352,0.00878906,
3682,-0.0195313,0.00892944,
3684,-0.012207,0.0088562,
3686,-0.0201416,0.00904541,
3688,0.012207,0.00910645,
3690,-0.00671387,0.00889893,
3692,-0.0195313,0.00908203,
3694,-0.0195313,0.00916748,
3696,-0.00488281,0.00909424,
3698,0.00488281,0.00910645,
3700,-0.00244141,0.0090332,
3702,-0.00915527,0.00911255,
3704,-0.00305176,0.00909424,
3706,0,0.00899658,
3708,-0.0177002,0.00908813,
3710,0.00549316,0.00910645,
3712,-0.0109863,0.00906372,
3714,0.00732422,0.00900879,
3716,0.0109863,0.00911865,
3718,-0.00976563,0.00919189,
3720,-0.0170898,0.00928955,
3722,-0.010376,0.00933838,
3724,-0.00305176,0.00930176,
3726,-0.0170898,0.00940552,
3728,-0.00488281,0.00939331,
3730,-0.0195313,0.00957031,
3732,-0.0134277,0.00966797,
3734,-0.00488281,0.00966187,
3736,-0.010376,0.00961304,
3738,-0.012207,0.00961304,
3740,0.00671387,0.00958252,
3742,-0.00976563,0.00955811,
3744,0.00488281,0.00951538,
3746,0.00305176,0.00941772,
3748,-0.0158691,0.00953979,
3750,0,0.00933838,
3752,-0.000610352,0.00915527,
3754,-0.000610352,0.00901489,
3756,-0.0134277,0.00910645,
3758,-0.00854492,0.00903931,
3760,-0.00610352,0.00895996,
3762,-0.0158691,0.00898438,
3764,-0.0146484,0.00903931,
3766,-0.012207,0.00906372,
3768,0.0140381,0.00910034,
3770,-0.0140381,0.00922852,
3772,-0.0170898,0.0093811,
3774,-0.00793457,0.00928955,
3776,-0.00610352,0.00932007,
3778,0.0109863,0.00936279,
3780,-0.012207,0.00935669,
3782,-0.0183105,0.00952148,
3784,0.00488281,0.00955811,
3786,-0.00915527,0.00950317,
3788,-0.00732422,0.00945435,
3790,-0.0012207,0.00941162,
3792,-0.020752,0.00959473,
3794,0.00244141,0.00950928,
3796,-0.00610352,0.00956421,
3798,-0.00671387,0.00963135,
3800,-0.0286865,0.00956421,
3802,0.0183105,0.00973511,
3804,-0.00183105,0.00964966,
3806,-0.0170898,0.00967407,
3808,0.00793457,0.009552,
3810,-0.00305176,0.00932617,
3812,0.00244141,0.00925903,
3814,0.0158691,0.00935059,
3816,-0.00854492,0.00930176,
3818,-0.0140381,0.00944214,
3820,0.000610352,0.00933838,
3822,-0.00183105,0.00921021,
3824,-0.00732422,0.00927734,
3826,-0.00915527,0.00935669,
3828,-0.0164795,0.00945435,
3830,-0.0140381,0.00943604,
3832,-0.0170898,0.00953369,
3834,-0.00915527,0.0095459,
3836,-0.000610352,0.00928345,
3838,-0.00915527,0.0093689,
3840,-0.0152588,0.00946655,
3842,0.00854492,0.00944824,
3844,0.00366211,0.00942993,
3846,-0.0280762,0.00969238,
3848,-0.0146484,0.00978394,
3850,-0.00732422,0.00969238,
3852,-0.00183105,0.00969238,
3854,-0.0164795,0.00974731,
3856,-0.010376,0.00977783,
3858,-0.00610352,0.00975952,
3860,-0.00427246,0.00975342,
3862,-0.0164795,0.00969849,
3864,0.00793457,0.00974731,
3866,-0.00610352,0.00963135,
3868,-0.0109863,0.00969238,
3870,-0.000610352,0.00967407,
3872,-0.0140381,0.00975342,
3874,-0.00427246,0.0097229,
3876,-0.00488281,0.00974121,
3878,0.00732422,0.00979614,
3880,-0.0134277,0.00986938,
3882,-0.0158691,0.00983276,
3884,0.0012207,0.0097229,
3886,0.00183105,0.00953979,
3888,0.00183105,0.00943604,
3890,-0.022583,0.00959473,
3892,-0.00915527,0.00949097,
3894,-0.0140381,0.00943604,
3896,0.0115967,0.00950317,
3898,0.00244141,0.00947876,
3900,-0.0195313,0.00964966,
3902,-0.00915527,0.00964966,
3904,0.00549316,0.00967407,
3906,0.0274658,0.00994873,
3908,0.00183105,0.00979004,
3910,-0.00854492,0.00982056,
3912,-0.00976563,0.00980835,
3914,-0.00793457,0.00981445,
3916,0.00183105,0.0097229,
3918,-0.0158691,0.00978394,
3920,-0.010376,0.0097168,
3922,-0.022583,0.00983887,
3924,-0.0219727,0.0100281,
3926,-0.0158691,0.0100159,
3928,-0.0012207,0.00997925,
3930,-0.00671387,0.00985107,
3932,-0.0012207,0.009729,
3934,-0.00427246,0.0097229,
3936,0.0140381,0.00975952,
3938,-0.00305176,0.00966797,
3940,-0.020752,0.00980835,
3942,-0.0128174,0.00983887,
3944,-0.00976563,0.0098877,
3946,-0.00915527,0.00994873,
3948,-0.0244141,0.0100342,
3950,-0.0177002,0.0102112,
3952,-0.00732422,0.0102783,
3954,-0.0140381,0.0104126,
3956,-0.0109863,0.0103882,
3958,-0.000610352,0.0103088,
3960,-0.00854492,0.0103333,
3962,-0.00366211,0.0102112,
3964,0.00793457,0.010144,
3966,-0.00976563,0.0101196,
3968,-0.00427246,0.010022,
3970,-0.0109863,0.00999146,
3972,0.00549316,0.00987549,
3974,-0.00976563,0.0098938,
3976,-0.00854492,0.00991821,
3978,-0.00427246,0.00985107,
3980,-0.0012207,0.00974121,
3982,-0.00793457,0.00963745,
3984,-0.00793457,0.00966797,
3986,-0.0170898,0.00974731,
3988,-0.00244141,0.00969849,
3990,0.0183105,0.00986938,
3992,-0.0244141,0.00990601,
3994,0.000610352,0.0098877,
3996,0.00183105,0.00984497,
3998,-0.0158691,0.00993652,
4000,-0.0134277,0.00978394,
4002,0.00366211,0.00963745,
4004,-0.00488281,0.00966797,
4006,-0.0189209,0.00968628,
4008,-0.0152588,0.00975952,
4010,0.000610352,0.00973511,
4012,-0.00244141,0.00973511,
4014,0.0115967,0.00969238,
4016,0.00305176,0.00963745,
4018,-0.0164795,0.00966187,
4020,-0.00671387,0.0097229,
4022,-0.00183105,0.0097229,
4024,-0.00183105,0.00966797,
4026,-0.00793457,0.00965576,
4028,-0.0152588,0.00964355,
4030,-0.022583,0.009729,
4032,-0.00732422,0.00963135,
4034,-0.0115967,0.00965576,
4036,0.00427246,0.00969238,
4038,-0.010376,0.00970459,
4040,-0.0256348,0.00980835,
4042,0.0012207,0.00973511,
4044,-0.00366211,0.00973511,
4046,-0.0177002,0.00963135,
4048,-0.000610352,0.00949097,
4050,-0.00610352,0.00947876,
4052,-0.00671387,0.00952759,
4054,0.00183105,0.0093811,
4056,-0.00488281,0.00932617,
4058,-0.0128174,0.00939331,
4060,-0.00244141,0.009375,
4062,-0.00854492,0.00929565,
4064,-0.00671387,0.00928345,
4066,-0.0134277,0.00935669,
4068,-0.00183105,0.00926514,
4070,-0.0128174,0.00938721,
4072,-0.00427246,0.00928955,
4074,0.0146484,0.00939331,
4076,0.0012207,0.00935669,
4078,-0.00976563,0.0093811,
4080,0.00793457,0.00932617,
4082,0.00427246,0.00921021,
4084,0.00427246,0.00924072,
4086,0.0213623,0.00943604,
4088,-0.00244141,0.00944214,
4090,-0.0274658,0.00949097,
4092,0.010376,0.00950317,
4094,0.000610352,0.0093689,
4096,-0.00915527,0.00934448,
4098,-0.0177002,0.00949707,
4100,-0.0164795,0.00946655,
4102,-0.00854492,0.00946045,
4104,-0.00671387,0.00947266,
4106,-0.0115967,0.00931396,
4108,-0.0195313,0.00949097,
4110,0.000610352,0.00941162,
4112,-0.0170898,0.00948486,
4114,-0.00244141,0.00942993,
4116,-0.00671387,0.00947876,
4118,-0.0177002,0.00949707,
4120,-0.00305176,0.00942383,
4122,-0.0213623,0.00941162,
4124,-0.00671387,0.00925903,
4126,-0.00976563,0.009198,
4128,-0.00732422,0.00925903,
4130,-0.00793457,0.00927124,
4132,-0.00610352,0.00932007,
4134,-0.00183105,0.00929565,
4136,-0.00671387,0.00922241,
4138,-0.0012207,0.0092041,
4140,-0.00305176,0.0090271,
4142,-0.00854492,0.00898438,
4144,0.0012207,0.00889893,
4146,-0.00549316,0.0088623,
4148,-0.00549316,0.0086731,
4150,-0.0170898,0.00866699,
4152,-0.00183105,0.00861206,
4154,0.00183105,0.00848999,
4156,-0.0250244,0.00863037,
4158,-0.0012207,0.00863647,
4160,-0.00915527,0.00864258,
4162,-0.00183105,0.00862427,
4164,-0.00732422,0.00861816,
4166,-0.0177002,0.00869751,
4168,-0.00610352,0.00871582,
4170,0.00183105,0.00862427,
4172,-0.0115967,0.0086853,
4174,-0.00610352,0.00864868,
4176,-0.0134277,0.00869751,
4178,0.00488281,0.00870361,
4180,-0.0140381,0.00883179,
4182,-0.00793457,0.00883179,
4184,0.00305176,0.00878296,
4186,-0.0183105,0.00879517,
4188,0.010376,0.00887451,
4190,-0.020752,0.00889893,
4192,-0.0140381,0.00879517,
4194,0.00366211,0.00882568,
4196,0,0.00880737,
4198,-0.0170898,0.00881958,
4200,-0.0415039,0.00910034,
4202,-0.00183105,0.00908203,
4204,0.0158691,0.00919189,
4206,-0.00549316,0.00905762,
4208,-0.0134277,0.00903931,
4210,-0.00976563,0.00913086,
4212,0.000610352,0.00911255,
4214,0.0128174,0.00912476,
4216,-0.010376,0.009198,
4218,-0.00732422,0.00910645,
4220,-0.0152588,0.00919189,
4222,-0.0134277,0.00930786,
4224,-0.00732422,0.00936279,
4226,-0.0109863,0.00939331,
4228,0.00610352,0.00930176,
4230,-0.0140381,0.00921631,
4232,-0.012207,0.00926514,
4234,0.0012207,0.00916138,
4236,-0.00305176,0.00914917,
4238,-0.00488281,0.00909424,
4240,-0.0170898,0.00900879,
4242,-0.0140381,0.00913696,
4244,-0.00732422,0.00917358,
4246,-0.0128174,0.00912476,
4248,-0.00854492,0.0092041,
4250,-0.00732422,0.00921631,
4252,-0.00305176,0.00917969,
4254,-0.010376,0.00926514,
4256,-0.00671387,0.00928345,
4258,0.00305176,0.00918579,
4260,-0.010376,0.00926514,
4262,-0.00305176,0.00921021,
4264,0.0140381,0.00928345,
4266,-0.03479,0.00949707,
4268,-0.00915527,0.00957031,
4270,-0.0012207,0.00945435,
4272,0.00488281,0.00946045,
4274,0.0012207,0.00932617,
4276,-0.0134277,0.00944824,
4278,-0.000610352,0.00935669,
4280,0.00671387,0.00934448,
4282,-0.00366211,0.00933838,
4284,0.012207,0.00941772,
4286,0.00244141,0.00922852,
4288,-0.0250244,0.00945435,
4290,-0.0128174,0.00930786,
4292,0.020752,0.00941162,
4294,-0.022583,0.00963135,
4296,-0.0134277,0.00967407,
4298,0.00366211,0.00953369,
4300,-0.000610352,0.009375,
4302,0.00732422,0.00936279,
4304,-0.022583,0.00952148,
4306,0,0.00940552,
4308,0.00488281,0.00925903,
4310,-0.00671387,0.00932007,
4312,-0.022583,0.009375,
4314,-0.00793457,0.00942993,
4316,-0.0152588,0.00951538,
4318,0.010376,0.00944214,
4320,-0.00183105,0.00942993,
4322,-0.00488281,0.00926514,
4324,0.00183105,0.00921631,
4326,0.00244141,0.00914307,
4328,0.00244141,0.00909424,
4330,0.0134277,0.00914917,
4332,0.00427246,0.00913086,
4334,0.00488281,0.00916138,
4336,-0.00183105,0.00911255,
4338,0,0.00910034,
4340,-0.0238037,0.00930786,
4342,0.0128174,0.00935059,
4344,-0.0115967,0.00945435,
4346,-0.00427246,0.00944214,
4348,-0.0158691,0.0095459,
4350,-0.0170898,0.0095459,
4352,-0.00915527,0.00961914,
4354,0.00244141,0.00962524,
4356,-0.00915527,0.00946655,
4358,0.0109863,0.00956421,
4360,-0.0164795,0.00963745,
4362,0.00244141,0.00964355,
4364,-0.00854492,0.00965576,
4366,-0.00732422,0.009552,
4368,0.00427246,0.00953369,
4370,-0.0128174,0.00964355,
4372,0.0134277,0.00966187,
4374,-0.0219727,0.00982056,
4376,0.00610352,0.00974731,
4378,0.00915527,0.00979004,
4380,-0.010376,0.00975342,
4382,0.00671387,0.00974121,
4384,0.00488281,0.00975952,
4386,-0.00915527,0.00966797,
4388,-0.010376,0.00966797,
4390,-0.00793457,0.00953979,
4392,-0.0109863,0.00950928,
4394,-0.00427246,0.00951538,
4396,0.0012207,0.00952759,
4398,-0.022583,0.00958252,
4400,-0.00610352,0.00922852,
4402,0.00854492,0.00929565,
4404,0.00610352,0.009198,
4406,-0.00793457,0.00922241,
4408,0.00549316,0.00914307,
4410,-0.012207,0.00916748,
4412,0.00610352,0.00922241,
4414,-0.000610352,0.00910034,
4416,-0.0262451,0.00925903,
4418,-0.00427246,0.00922852,
4420,-0.00366211,0.00911255,
4422,0.00671387,0.00904541,
4424,-0.0128174,0.00910034,
4426,0.000610352,0.00899658,
4428,0.0012207,0.00894775,
4430,0.0244141,0.00905151,
4432,-0.0292969,0.00922241,
4434,0.00671387,0.00927734,
4436,-0.00854492,0.00933228,
4438,0.00854492,0.0093689,
4440,-0.00915527,0.00928955,
4442,-0.00793457,0.00922852,
4444,-0.0170898,0.00932617,
4446,-0.00244141,0.00922241,
4448,0.0286865,0.00942383,
4450,-0.032959,0.00968018,
4452,-0.0012207,0.00966187,
4454,-0.00732422,0.00963135,
4456,-0.00610352,0.00962524,
4458,-0.00488281,0.00964355,
4460,-0.00366211,0.00957642,
4462,-0.0213623,0.00975952,
4464,0.00183105,0.00963745,
4466,0.000610352,0.00929565,
4468,-0.0158691,0.00936279,
4470,-0.00671387,0.00941772,
4472,-0.00305176,0.00939941,
4474,-0.0189209,0.00957642,
4476,-0.0012207,0.00945435,
4478,-0.00915527,0.00953979,
4480,-0.0109863,0.00958252,
4482,-0.00732422,0.00961914,
4484,-0.00854492,0.00958252,
4486,-0.00915527,0.00964966,
4488,-0.0146484,0.0095459,
4490,0.0201416,0.00961914,
4492,-0.0189209,0.00960083,
4494,-0.00488281,0.00942383,
4496,-0.0128174,0.00941772,
4498,0.00976563,0.00947876,
4500,-0.0012207,0.00948486,
4502,0.00183105,0.00942993,
4504,-0.00488281,0.00925293,
4506,-0.0170898,0.00942383,
4508,-0.00610352,0.00943604,
4510,-0.00610352,0.00942993,
4512,-0.010376,0.00930786,
4514,-0.00305176,0.00925903,
4516,-0.00915527,0.009198,
4518,-0.0219727,0.00931396,
4520,-0.0115967,0.00941162,
4522,-0.00976563,0.00946045,
4524,0.00244141,0.00946655,
4526,-0.00854492,0.00952759,
4528,-0.012207,0.00962524,
4530,-0.00976563,0.00958862,
4532,0.00427246,0.00958862,
4534,-0.0201416,0.00974121,
4536,0.00488281,0.00977173,
4538,-0.00732422,0.00984497,
4540,-0.0134277,0.00974121,
4542,-0.00671387,0.00968018,
4544,-0.00183105,0.00958252,
4546,-0.0274658,0.00981445,
4548,-0.00671387,0.0097229,
4550,0,0.009552,
4552,0.00488281,0.00950928,
4554,-0.00366211,0.00952148,
4556,-0.00854492,0.00951538,
4558,-0.00732422,0.00947876,
4560,-0.00183105,0.00933228,
4562,-0.00549316,0.00936279,
4564,-0.0012207,0.00928955,
4566,-0.0158691,0.009375,
4568,-0.010376,0.00943604,
4570,-0.0140381,0.00944824,
4572,0.000610352,0.00932007,
4574,-0.00732422,0.00917358,
4576,-0.00793457,0.00919189,
4578,-0.00488281,0.00914917,
4580,-0.00427246,0.00908813,
4582,-0.00732422,0.00909424,
4584,0.00366211,0.00908203,
4586,-0.0158691,0.00914917,
4588,0,0.00904541,
4590,0.00305176,0.00899658,
4592,-0.0109863,0.00899658,
4594,-0.00183105,0.00897217,
4596,-0.0152588,0.00911255,
4598,0.00610352,0.00894775,
4600,-0.0115967,0.00900269,
4602,-0.0152588,0.00906982,
4604,-0.00488281,0.00905762,
4606,-0.00610352,0.00903931,
4608,-0.00793457,0.00906372,
4610,-0.00854492,0.0090271,
4612,-0.00732422,0.00903931,
4614,0.0012207,0.00904541,
4616,0.0109863,0.00889282,
4618,0.00366211,0.00888672,
4620,-0.012207,0.00897217,
4622,0.00671387,0.00897217,
4624,0.00732422,0.00891724,
4626,-0.00427246,0.00895386,
4628,0.00732422,0.00901489,
4630,-0.0213623,0.00898438,
4632,-0.00549316,0.00874634,
4634,-0.00427246,0.00872192,
4636,0.00244141,0.00866089,
4638,-0.0134277,0.00870972,
4640,0.00183105,0.00863647,
4642,-0.0238037,0.00879517,
4644,-0.00915527,0.00871582,
4646,-0.0170898,0.0088623,
4648,-0.00915527,0.00866699,
4650,-0.0115967,0.00845337,
4652,-0.0164795,0.00860596,
4654,-0.00427246,0.00857544,
4656,-0.012207,0.00863647,
4658,-0.012207,0.00870972,
4660,-0.00976563,0.00877075,
4662,0.0109863,0.00866699,
4664,-0.00488281,0.00869751,
4666,-0.020752,0.00889893,
4668,-0.0012207,0.00875244,
4670,-0.00366211,0.00872192,
4672,-0.00427246,0.00873413,
4674,-0.0213623,0.00875854,
4676,0.0109863,0.0088562,
4678,-0.0140381,0.00890503,
4680,-0.0128174,0.00892334,
4682,0.00244141,0.00887451,
4684,0.00915527,0.00888062,
4686,-0.0164795,0.00895386,
4688,0.0128174,0.00893555,
4690,-0.0012207,0.00874634,
4692,-0.012207,0.0086792,
4694,-0.00366211,0.00866699,
4696,-0.00244141,0.00856323,
4698,0.00244141,0.00848999,
4700,-0.00976563,0.00857544,
4702,0.00610352,0.00861816,
4704,-0.0201416,0.00877075,
4706,0.00244141,0.00862427,
4708,0.00488281,0.00861206,
4710,-0.0201416,0.00875244,
4712,0.012207,0.00877075,
4714,-0.0146484,0.00888672,
4716,-0.0134277,0.00892944,
4718,-0.00305176,0.00874023,
4720,0.000610352,0.00863037,
4722,-0.012207,0.00865479,
4724,-0.00549316,0.0086853,
4726,0.00183105,0.00861816,
4728,-0.0146484,0.00864258,
4730,0.012207,0.00866699,
4732,-0.0109863,0.00873413,
4734,-0.0213623,0.00874634,
4736,0.00244141,0.00872192,
4738,-0.00915527,0.00874023,
4740,0.00183105,0.00862427,
4742,-0.00488281,0.00860596,
4744,-0.0256348,0.00884399,
4746,-0.0189209,0.00875854,
4748,0.00732422,0.00876465,
4750,-0.00915527,0.0088562,
4752,-0.0177002,0.00898438,
4754,-0.0231934,0.00917969,
4756,0,0.00909424,
4758,-0.00671387,0.00908813,
4760,-0.00610352,0.00913086,
4762,-0.0183105,0.00925903,
4764,0.0128174,0.009375,
4766,0.00549316,0.00927124,
4768,-0.0134277,0.00930176,
4770,0.0268555,0.00942993,
4772,-0.032959,0.00975342,
4774,-0.00244141,0.00970459,
4776,-0.00915527,0.0097168,
4778,-0.00549316,0.0097229,
4780,-0.0164795,0.00984497,
4782,-0.012207,0.0098938,
4784,-0.0152588,0.0100098,
4786,-0.0250244,0.0101013,
4788,-0.00427246,0.010144,
4790,0.00183105,0.0101318,
4792,-0.00976563,0.0101196,
4794,0.000610352,0.0101074,
4796,-0.0213623,0.0101685,
4798,0.00244141,0.0101318,
4800,0.010376,0.0101196,
4802,-0.00976563,0.0100647,
4804,0.00244141,0.0100403,
4806,-0.000610352,0.00998535,
4808,-0.0164795,0.0100708,
4810,-0.00976563,0.010083,
4812,-0.0140381,0.0101501,
4814,0.00854492,0.0102234,
4816,-0.00915527,0.0102051,
4818,-0.0109863,0.0102783,
4820,-0.0109863,0.0102661,
4822,0.000610352,0.0102051,
4824,0.0299072,0.0104309,
4826,-0.0250244,0.0106384,
4828,-0.00732422,0.0106384,
4830,0.00732422,0.010498,
4832,0.0140381,0.0105835,
4834,-0.00976563,0.0106384,
4836,-0.0341797,0.0109558,
4838,0.00854492,0.010907,
4840,-0.0109863,0.0109985,
4842,0,0.0107605,
4844,-0.00732422,0.0107422,
4846,-0.0115967,0.0106873,
4848,-0.0177002,0.0107727,
4850,0.010376,0.0107605,
4852,0.020752,0.0108032,
4854,-0.0177002,0.0109375,
4856,-0.0256348,0.0110718,
4858,0.0128174,0.0110779,
4860,-0.00549316,0.0110352,
4862,-0.00488281,0.0109741,
4864,-0.00427246,0.010968,
4866,-0.0183105,0.0109436,
4868,-0.00488281,0.0109802,
4870,0.00671387,0.0110107,
4872,-0.0213623,0.0111816,
4874,0.00183105,0.0109863,
4876,-0.00854492,0.0109619,
4878,-0.00854492,0.010907,
4880,-0.00305176,0.0108093,
4882,-0.00244141,0.0108093,
4884,-0.0189209,0.010907,
4886,-0.00305176,0.0107727,
4888,0.00305176,0.010675,
4890,-0.00732422,0.0107361,
4892,-0.00793457,0.0106934,
4894,-0.00366211,0.0106934,
4896,-0.012207,0.010791,
4898,0.0140381,0.010907,
4900,-0.00732422,0.0108826,
4902,-0.00549316,0.0108765,
4904,0.00427246,0.0107178,
4906,0.0115967,0.0108093,
4908,0.0286865,0.0110474,
4910,-0.0170898,0.0110168,
4912,-0.00244141,0.0109192,
4914,-0.00305176,0.0108032,
4916,0.0109863,0.0107788,
4918,-0.00610352,0.0108093,
4920,-0.0164795,0.010968,
4922,-0.0128174,0.0109741,
4924,-0.010376,0.0110229,
4926,0.0219727,0.0112244,
4928,-0.0311279,0.0113892,
4930,-0.00244141,0.0112915,
4932,0.010376,0.0112854,
4934,-0.0146484,0.0112183,
4936,-0.000610352,0.0112,
4938,-0.00488281,0.0111572,
4940,-0.0170898,0.0113098,
4942,-0.0164795,0.0114258,
4944,-0.00427246,0.0112122,
4946,0.0170898,0.0111938,
4948,-0.0299072,0.0114197,
4950,-0.00244141,0.0113525,
4952,-0.0170898,0.0113464,
4954,0.0115967,0.0112305,
4956,-0.0231934,0.0114624,
4958,-0.00671387,0.0114624,
4960,-0.0189209,0.0115906,
4962,-0.00610352,0.0114685,
4964,0.00854492,0.0114258,
4966,-0.0189209,0.0115601,
4968,-0.0219727,0.0116455,
4970,0.0134277,0.0115112,
4972,-0.0109863,0.0112915,
4974,-0.00793457,0.0113464,
4976,-0.012207,0.011377,
4978,0.00793457,0.0114014,
4980,-0.012207,0.0113586,
4982,-0.0231934,0.0114685,
4984,-0.0195313,0.0115112,
4986,0.0140381,0.0114014,
4988,-0.00244141,0.0113831,
4990,-0.010376,0.0114685,
4992,-0.0244141,0.011615,
4994,0.012207,0.011731,
4996,-0.0140381,0.0116577,
4998,0.000610352,0.0116394,
5000,-0.0128174,0.0116638,
5002,-0.010376,0.0116699,
5004,0.00366211,0.0116821,
5006,-0.0134277,0.0118103,
5008,-0.00305176,0.011676,
5010,-0.00610352,0.0116394,
5012,-0.00305176,0.0115295,
5014,-0.010376,0.0115479,
5016,-0.0012207,0.0114685,
5018,-0.0164795,0.0115234,
5020,0.0109863,0.0115234,
5022,-0.00793457,0.0115967,
5024,-0.00732422,0.0113708,
5026,-0.00427246,0.0111633,
5028,0.0012207,0.0111023,
5030,-0.00366211,0.0110657,
5032,-0.00915527,0.0110168,
5034,0.00183105,0.0109375,
5036,-0.0109863,0.0107056,
5038,0.00671387,0.0106873,
5040,-0.0146484,0.0107239,
5042,-0.0201416,0.0109253,
5044,0.00976563,0.0109497,
5046,-0.0170898,0.0110046,
5048,0.0195313,0.0110229,
5050,-0.0177002,0.0110962,
5052,-0.0134277,0.0110229,
5054,0.010376,0.0109497,
5056,-0.00976563,0.010791,
5058,0.0164795,0.0108276,
5060,-0.0177002,0.0109497,
5062,-0.020752,0.0111084,
5064,0.00549316,0.0111206,
5066,0.00244141,0.0109619,
5068,-0.0164795,0.0110779,
5070,-0.0170898,0.0111816,
5072,-0.0170898,0.0111389,
5074,0.0128174,0.0112488,
5076,-0.00671387,0.0112305,
5078,0.000610352,0.0111511,
5080,-0.0115967,0.0112366,
5082,-0.00549316,0.0112671,
5084,0.00732422,0.0111511,
5086,-0.00732422,0.0111938,
5088,0.0115967,0.0112793,
5090,-0.00915527,0.0112976,
5092,-0.0219727,0.011438,
5094,0.00732422,0.0114746,
5096,-0.0128174,0.0114807,
5098,-0.00549316,0.0113953,
5100,-0.00793457,0.0114014,
5102,-0.010376,0.0114502,
5104,0.00305176,0.011438,
5106,0.00854492,0.0114075,
5108,-0.012207,0.0112427,
5110,-0.00854492,0.0111572,
5112,0.012207,0.0112549,
5114,-0.00549316,0.0112793,
5116,-0.00915527,0.011261,
5118,0.00244141,0.0112244,
5120,-0.00549316,0.0111145,
5122,-0.0244141,0.0112305,
5124,0,0.0111267,
5126,0.0146484,0.0110535,
5128,0.0140381,0.0108826,
5130,-0.0323486,0.0111816,
5132,0.00488281,0.0111267,
5134,0.0012207,0.0109924,
5136,-0.0158691,0.011145,
5138,0.00854492,0.0111816,
5140,-0.0152588,0.0111633,
5142,-0.0189209,0.0111877,
5144,-0.0256348,0.0114014,
5146,-0.00549316,0.0112854,
5148,-0.0140381,0.0111267,
5150,-0.0146484,0.0112488,
5152,0.012207,0.0112,
5154,0.00915527,0.0111755,
5156,-0.0384521,0.0113281,
5158,0.010376,0.0113647,
5160,-0.0115967,0.0112915,
5162,-0.00183105,0.0112488,
5164,0.00488281,0.0112122,
5166,-0.0231934,0.0112549,
5168,-0.0256348,0.0112915,
5170,0.0012207,0.0111694,
5172,-0.00976563,0.0111572,
5174,0.00915527,0.0111694,
5176,-0.0158691,0.0112061,
5178,0.00976563,0.0112244,
5180,-0.00671387,0.0111694,
5182,-0.0183105,0.0111206,
5184,0.00854492,0.0110107,
5186,-0.0177002,0.0110474,
5188,0.00183105,0.0110413,
5190,-0.00732422,0.0110107,
5192,-0.0170898,0.0109375,
5194,-0.0012207,0.0108276,
5196,-0.00915527,0.0107788,
5198,-0.010376,0.0108765,
5200,0.00244141,0.0107727,
5202,-0.00732422,0.0107422,
5204,0.00244141,0.01073,
5206,-0.00854492,0.0106812,
5208,0.0128174,0.0107788,
5210,-0.0115967,0.0108337,
5212,-0.0152588,0.0109558,
5214,0.00610352,0.0109131,
5216,0.00244141,0.0109253,
5218,-0.00976563,0.0108582,
5220,-0.000610352,0.0107544,
5222,0.00427246,0.0107178,
5224,-0.022583,0.0108704,
5226,-0.010376,0.0109314,
5228,-0.00305176,0.0109497,
5230,-0.00183105,0.0109314,
5232,0.00305176,0.0108704,
5234,-0.0219727,0.0110718,
5236,-0.0152588,0.0111145,
5238,-0.00244141,0.0110718,
5240,0.00732422,0.0109985,
5242,-0.020752,0.0110046,
5244,-0.00793457,0.0109863,
5246,0.00366211,0.0108521,
5248,-0.00183105,0.010675,
5250,-0.0012207,0.0105103,
5252,0.00549316,0.0104309,
5254,-0.0177002,0.0105042,
5256,-0.00610352,0.0104675,
5258,0.00549316,0.0103577,
5260,0.0152588,0.0103333,
5262,-0.0250244,0.010376,
5264,0.0134277,0.0104553,
5266,-0.00915527,0.0105225,
5268,-0.0115967,0.0104736,
5270,-0.00488281,0.0103516,
5272,-0.00366211,0.0102173,
5274,-0.00488281,0.0101379,
5276,-0.00854492,0.0101563,
5278,0.000610352,0.0101563,
5280,-0.00915527,0.0101318,
5282,0.00854492,0.0101624,
5284,-0.00488281,0.0101379,
5286,0.00549316,0.0101196,
5288,-0.00671387,0.0100708,
5290,0.0115967,0.0100952,
5292,0.00427246,0.00991821,
5294,-0.00671387,0.00991211,
5296,-0.0012207,0.00979614,
5298,-0.00427246,0.00978394,
5300,-0.00976563,0.00980225,
5302,0.00732422,0.00977173,
5304,0.00305176,0.00977173,
5306,-0.0140381,0.00982666,
5308,0.00427246,0.00974731,
5310,0.0183105,0.00984497,
5312,-0.0219727,0.00994263,
5314,0.0134277,0.010022,
5316,0.00671387,0.00999756,
5318,-0.00610352,0.0100342,
5320,-0.00305176,0.0100098,
5322,0.00244141,0.00979004,
5324,-0.0183105,0.00997314,
5326,0.00305176,0.00985718,
5328,0.00427246,0.00975952,
5330,-0.0134277,0.00957031,
5332,-0.0140381,0.00966187,
5334,-0.00488281,0.00969849,
5336,-0.00549316,0.00959473,
5338,-0.0012207,0.00952148,
5340,-0.00549316,0.00942383,
5342,-0.0183105,0.00941772,
5344,0.00244141,0.00918579,
5346,-0.00305176,0.00916138,
5348,0.00610352,0.00908203,
5350,-0.00976563,0.0090332,
5352,-0.00488281,0.00895996,
5354,0.00305176,0.00889893,
5356,0.0012207,0.00852661,
5358,-0.00488281,0.00847168,
5360,-0.0134277,0.00848999,
5362,-0.00244141,0.00849609,
5364,-0.00305176,0.00847778,
5366,0.0012207,0.00825806,
5368,-0.000610352,0.00800781,
5370,-0.00305176,0.00802612,
5372,-0.0305176,0.00823364,
5374,0.00732422,0.00821533,
5376,0.00244141,0.00808105,
5378,-0.0244141,0.00822754,
5380,-0.000610352,0.0081665,
5382,-0.0158691,0.00814209,
5384,-0.0170898,0.00822754,
5386,-0.00488281,0.00809937,
5388,-0.0012207,0.00809326,
5390,-0.00610352,0.00808105,
5392,-0.00976563,0.00800781,
5394,-0.0140381,0.00813599,
5396,0.00183105,0.00806274,
5398,-0.0268555,0.00822754,
5400,0.00732422,0.00827637,
5402,0.0012207,0.00821533,
5404,-0.00549316,0.00824585,
5406,0,0.0081604,
5408,0.00488281,0.00808105,
5410,-0.010376,0.00806885,
5412,0.00488281,0.00796509,
5414,0.0152588,0.00805664,
5416,-0.0256348,0.00828857,
5418,-0.00183105,0.00820923,
5420,-0.0177002,0.00838013,
5422,-0.00671387,0.00840454,
5424,-0.00793457,0.00825806,
5426,-0.0128174,0.00828247,
5428,0.00305176,0.00828247,
5430,-0.0146484,0.00841064,
5432,-0.010376,0.00848389,
5434,0.00976563,0.00836182,
5436,-0.0195313,0.00840454,
5438,0,0.00838013,
5440,-0.0189209,0.00849609,
5442,-0.0195313,0.00848389,
5444,-0.00610352,0.00846558,
5446,-0.00366211,0.00846558,
5448,-0.00793457,0.00852661,
5450,-0.0164795,0.0086792,
5452,0.00244141,0.00864868,
5454,-0.00610352,0.00853271,
5456,0.0164795,0.00863647,
5458,-0.0109863,0.00869141,
5460,0.0170898,0.00870972,
5462,-0.020752,0.00866699,
5464,-0.00305176,0.00856323,
5466,-0.00671387,0.00853882,
5468,0.00366211,0.00845947,
5470,0,0.00841064,
5472,-0.00732422,0.00844727,
5474,-0.0323486,0.00872192,
5476,0.00305176,0.00866699,
5478,-0.020752,0.00886841,
5480,-0.00427246,0.00881958,
5482,0.00671387,0.00880127,
5484,-0.012207,0.00887451,
5486,-0.00793457,0.00889893,
5488,-0.0140381,0.00897217,
5490,0.00610352,0.00891724,
5492,-0.0183105,0.00905762,
5494,-0.00915527,0.00908203,
5496,0.0012207,0.00908203,
5498,-0.00854492,0.00912476,
5500,-0.0183105,0.00921021,
5502,-0.0128174,0.00926514,
5504,0.010376,0.00933838,
5506,-0.022583,0.00942383,
5508,0.00244141,0.00940552,
5510,-0.0109863,0.00933228,
5512,-0.0109863,0.00922241,
5514,0.00549316,0.00914307,
5516,-0.00549316,0.00913086,
5518,-0.0177002,0.00924683,
5520,-0.00732422,0.00928955,
5522,0.00366211,0.00930176,
5524,-0.0134277,0.00925293,
5526,0.00427246,0.00926514,
5528,-0.012207,0.00934448,
5530,-0.0134277,0.00934448,
5532,-0.00366211,0.00924072,
5534,-0.00976563,0.00928955,
5536,-0.00671387,0.00930176,
5538,-0.0152588,0.00944214,
5540,-0.00488281,0.00943604,
5542,-0.0146484,0.00939941,
5544,-0.00671387,0.00944214,
5546,-0.020752,0.00961914,
5548,0.00488281,0.00960693,
5550,0.010376,0.00961304,
5552,-0.0274658,0.00983887,
5554,0.00488281,0.00985718,
5556,-0.00976563,0.00994263,
5558,-0.012207,0.0100159,
5560,0.00305176,0.00991211,
5562,-0.00732422,0.00996094,
5564,0,0.00993042,
5566,-0.010376,0.010022,
5568,0.0360107,0.010376,
5570,-0.0286865,0.0106323,
5572,-0.0292969,0.0106201,
5574,0.010376,0.0106506,
5576,-0.00732422,0.0106995,
5578,-0.012207,0.0105774,
5580,-0.0109863,0.0106812,
5582,-0.00793457,0.0106018,
5584,-0.0170898,0.0106018,
5586,-0.00305176,0.0105835,
5588,-0.000610352,0.0105774,
5590,0.00610352,0.0105774,
5592,-0.0231934,0.0107117,
5594,0.00244141,0.0105957,
5596,-0.00305176,0.0106079,
5598,0.0109863,0.0104492,
5600,-0.00671387,0.0104431,
5602,-0.010376,0.0105347,
5604,0.000610352,0.0104858,
5606,0.0012207,0.010498,
5608,0.0134277,0.0105835,
5610,0.00244141,0.0105042,
5612,-0.0177002,0.0106323,
5614,-0.0158691,0.0106384,
5616,0.0115967,0.010498,
5618,-0.0140381,0.0106201,
5620,0.00976563,0.0105408,
5622,-0.00244141,0.010498,
5624,-0.022583,0.0106445,
5626,0.00183105,0.0105347,
5628,0.00732422,0.0105774,
5630,-0.00183105,0.0104492,
5632,0,0.0103455,
5634,0.0109863,0.0103577,
5636,-0.0256348,0.0104187,
5638,0.00488281,0.0104675,
5640,0.00610352,0.0103394,
5642,-0.0164795,0.0103088,
5644,0.00244141,0.0102722,
5646,0.000610352,0.0102417,
5648,-0.000610352,0.0101685,
5650,-0.00610352,0.0100647,
5652,-0.00244141,0.0100647,
5654,0.0012207,0.0100159,
5656,-0.00305176,0.00988159,
5658,-0.0128174,0.0098999,
5660,0.00671387,0.00979614,
5662,-0.00427246,0.00963135,
5664,0.0012207,0.00961304,
5666,-0.010376,0.00964966,
5668,0.0195313,0.00980835,
5670,-0.0244141,0.0100525,
5672,-0.00305176,0.0100098,
5674,0.0012207,0.00969849,
5676,0.00488281,0.0097168,
5678,-0.0195313,0.00970459,
5680,0.0012207,0.00967407,
5682,-0.00854492,0.00969238,
5684,0.000610352,0.00957642,
5686,-0.000610352,0.00950317,
5688,0,0.00936279,
5690,0.0012207,0.00931396,
5692,-0.0177002,0.00930786,
5694,0.0152588,0.0093689,
5696,-0.022583,0.00958252,
5698,-0.00305176,0.00952759,
5700,-0.00366211,0.0093811,
5702,-0.00366211,0.00928955,
5704,-0.00244141,0.00921021,
5706,-0.000610352,0.00899048,
5708,0.00610352,0.0090271,
5710,0.000610352,0.00892334,
5712,-0.00549316,0.00886841,
5714,0.00549316,0.00886841,
5716,-0.00610352,0.00887451,
5718,-0.00244141,0.00872192,
5720,-0.00183105,0.00866699,
5722,-0.00244141,0.00865479,
5724,-0.012207,0.00864258,
5726,-0.00671387,0.00866699,
5728,-0.0012207,0.00855713,
5730,-0.00427246,0.00846558,
5732,-0.00976563,0.00852661,
5734,-0.010376,0.00853271,
5736,-0.00305176,0.00849609,
5738,0.00732422,0.00841675,
5740,0.00244141,0.00839233,
5742,-0.0115967,0.00836182,
5744,0.00427246,0.0083374,
5746,-0.0146484,0.00827637,
5748,0.00244141,0.00825195,
5750,-0.000610352,0.0081543,
5752,-0.00366211,0.00791626,
5754,-0.010376,0.00797119,
5756,-0.00854492,0.00795898,
5758,-0.000610352,0.00784302,
5760,0.00610352,0.00787354,
5762,0.00610352,0.00786133,
5764,-0.00854492,0.00794678,
5766,0.00915527,0.00793457,
5768,-0.00549316,0.00762939,
5770,0.00305176,0.00737305,
5772,-0.00366211,0.0071167,
5774,0.00183105,0.00703125,
5776,-0.00488281,0.00700684,
5778,-0.00366211,0.00692139,
5780,0.0158691,0.00697021,
5782,-0.0201416,0.00709229,
5784,-0.0177002,0.00709839,
5786,0.00976563,0.00716553,
5788,-0.00183105,0.00717773,
5790,-0.0012207,0.00712891,
5792,-0.0195313,0.00709229,
5794,-0.000610352,0.00707397,
5796,-0.00732422,0.0071167,
5798,0.0146484,0.00715332,
5800,-0.0183105,0.00726929,
5802,-0.00976563,0.00726318,
5804,0.00976563,0.00735474,
5806,-0.00610352,0.00740356,
5808,-0.0115967,0.00738525,
5810,0.00183105,0.00737915,
5812,-0.0195313,0.00739746,
5814,0.000610352,0.00724487,
5816,-0.0109863,0.00723877,
5818,-0.00427246,0.00714111,
5820,-0.00549316,0.00709839,
5822,-0.00793457,0.00715332,
5824,-0.00793457,0.00700684,
5826,0.0170898,0.00715942,
5828,-0.0238037,0.00732422,
5830,-0.00183105,0.00732422,
5832,-0.0146484,0.0074707,
5834,-0.00671387,0.00742798,
5836,-0.0012207,0.00718384,
5838,-0.00915527,0.00722656,
5840,-0.0170898,0.00733643,
5842,-0.00976563,0.00726929,
5844,0.0109863,0.00735474,
5846,-0.00915527,0.00744019,
5848,-0.00366211,0.0074707,
5850,-0.00305176,0.00744019,
5852,0.00671387,0.00748291,
5854,-0.00671387,0.00753784,
5856,0,0.00750732,
5858,0,0.00737915,
5860,-0.0177002,0.00748901,
5862,-0.0140381,0.00758667,
5864,0.0146484,0.00772095,
5866,-0.0140381,0.00775757,
5868,-0.0146484,0.00770874,
5870,0.00244141,0.00748901,
5872,-0.00549316,0.00751343,
5874,0.00427246,0.00754395,
5876,0.00305176,0.00752563,
5878,-0.00183105,0.00734863,
5880,0.0390625,0.00772705,
5882,0.0109863,0.00775146,
5884,-0.0128174,0.00787354,
5886,0.0311279,0.00817871,
5888,0.0305176,0.00848389,
5890,-0.0140381,0.00861206,
5892,-0.012207,0.00855713,
5894,-0.00549316,0.00845947,
5896,-0.0213623,0.00844727,
5898,-0.0256348,0.0086731,
5900,-0.0109863,0.00874634,
5902,-0.0146484,0.0088562,
5904,-0.0152588,0.00898438,
5906,-0.0231934,0.00921021,
5908,-0.0115967,0.00926514,
5910,-0.0195313,0.00945435,
5912,-0.0152588,0.009552,
5914,0.00610352,0.00955811,
5916,-0.00976563,0.00959473,
5918,-0.022583,0.00979614,
5920,0.00305176,0.00980835,
5922,0,0.00978394,
5924,0.0128174,0.00979004,
5926,0.0280762,0.0100037,
5928,0.00427246,0.0100342,
5930,-0.0195313,0.0101868,
5932,-0.00305176,0.0101196,
5934,0.00183105,0.0100342,
5936,-0.0158691,0.0101624,
5938,-0.0134277,0.0102234,
5940,-0.0286865,0.0104858,
5942,0.00183105,0.0103882,
5944,-0.0115967,0.0104614,
5946,-0.00610352,0.010376,
5948,0.0219727,0.0105713,
5950,0.0140381,0.0107056,
5952,-0.00305176,0.0106995,
5954,0.0250244,0.0108459,
5956,0.0109863,0.0108704,
5958,0.0152588,0.0110168,
5960,0.0286865,0.0112427,
5962,-0.0201416,0.0113831,
5964,-0.0305176,0.0116028,
5966,-0.0128174,0.0116394,
5968,-0.00366211,0.0116211,
5970,-0.0396729,0.0119873,
5972,-0.0189209,0.0121399,
5974,-0.032959,0.0124512,
5976,-0.0177002,0.0125793,
5978,-0.0244141,0.0127869,
5980,-0.0128174,0.0127563,
5982,0.00305176,0.0125854,
5984,-0.0115967,0.0125244,
5986,-0.0146484,0.0125732,
5988,-0.0134277,0.0126892,
5990,-0.0189209,0.0128662,
5992,-0.0164795,0.0128357,
5994,-0.00671387,0.0128967,
5996,-0.00793457,0.0129028,
5998,-0.00366211,0.012793,
6000,-0.00915527,0.0127014,
6002,-0.00305176,0.0126343,
6004,0.00610352,0.0125977,
6006,-0.00732422,0.0126099,
6008,-0.00427246,0.0125366,
6010,-0.00854492,0.0126038,
6012,-0.00610352,0.0124695,
6014,-0.000610352,0.0124695,
6016,-0.0213623,0.0125732,
6018,-0.00305176,0.012561,
6020,0.00671387,0.0125732,
6022,0.00732422,0.0125671,
6024,0.00183105,0.0125061,
6026,-0.010376,0.012439,
6028,0.0256348,0.0124573,
6030,0.0109863,0.0125488,
6032,0.00610352,0.0124634,
6034,0.010376,0.0125,
6036,0,0.0124878,
6038,-0.010376,0.0125,
6040,-0.0238037,0.0125671,
6042,0,0.0124695,
6044,-0.00671387,0.0124268,
6046,-0.012207,0.0124573,
6048,-0.0201416,0.0126221,
6050,-0.00854492,0.012677,
6052,-0.00915527,0.0127014,
6054,0.00793457,0.0127136,
6056,-0.00488281,0.0127625,
6058,-0.0183105,0.0129456,
6060,0.010376,0.0128723,
6062,0.0012207,0.0127441,
6064,-0.0231934,0.0128296,
6066,-0.0158691,0.0128479,
6068,-0.0134277,0.0128357,
6070,-0.0012207,0.0128235,
6072,-0.0177002,0.0129456,
6074,-0.0305176,0.013208,
6076,0.0012207,0.0131897,
6078,0.012207,0.0132935,
6080,-0.0158691,0.0130615,
6082,0.00183105,0.01297,
6084,0.000610352,0.0128479,
6086,-0.00366211,0.0125732,
6088,0.0146484,0.0124146,
6090,0.00793457,0.0123535,
6092,-0.020752,0.012439,
6094,-0.00854492,0.0124695,
6096,-0.00366211,0.0122925,
6098,-0.00366211,0.0120728,
6100,-0.00793457,0.0120422,
6102,-0.010376,0.0119995,
6104,-0.00427246,0.0118896,
6106,-0.0201416,0.0118591,
6108,0.00732422,0.0118164,
6110,-0.00732422,0.0116943,
6112,-0.00915527,0.0116333,
6114,-0.00366211,0.0116089,
6116,-0.00976563,0.0116089,
6118,-0.00549316,0.011438,
6120,0.010376,0.0115112,
6122,-0.00366211,0.0115479,
6124,0,0.0114197,
6126,0.0274658,0.0114136,
6128,0.0134277,0.0115051,
6130,-0.00732422,0.0113831,
6132,0.0158691,0.0115112,
6134,0.00854492,0.0115784,
6136,-0.0183105,0.0116028,
6138,-0.012207,0.0115906,
6140,-0.012207,0.0114258,
6142,-0.0189209,0.0115967,
6144,-0.0195313,0.011676,
6146,-0.0292969,0.011908,
6148,-0.010376,0.011792,
6150,-0.00854492,0.0117371,
6152,-0.00976563,0.0118042,
6154,-0.00183105,0.0115723,
6156,-0.0140381,0.0116028,
6158,-0.00183105,0.0114685,
6160,0.00427246,0.0112244,
6162,-0.000610352,0.0110291,
6164,-0.00915527,0.0108154,
6166,-0.0158691,0.0108459,
6168,-0.00732422,0.0108826,
6170,-0.00488281,0.0105347,
6172,0.00488281,0.0103943,
6174,-0.00671387,0.0101318,
6176,-0.00305176,0.00998535,
6178,0.00793457,0.00982056,
6180,0.012207,0.00981445,
6182,-0.012207,0.00990601,
6184,-0.00244141,0.00981445,
6186,0.000610352,0.00967407,
6188,-0.00732422,0.00961304,
6190,0.00244141,0.00944824,
6192,-0.0183105,0.00946655,
6194,-0.00915527,0.00949097,
6196,-0.00671387,0.00947876,
6198,-0.000610352,0.00944824,
6200,0,0.00935669,
6202,-0.00732422,0.00939941,
6204,-0.00244141,0.00936279,
6206,0.00732422,0.00936279,
6208,-0.00671387,0.00938721,
6210,0.00610352,0.00936279,
6212,0.00427246,0.00934448,
6214,-0.00305176,0.0093689,
6216,0.00305176,0.00918579,
6218,0.000610352,0.00916138,
6220,-0.00732422,0.00916748,
6222,0.0109863,0.0092041,
6224,-0.00244141,0.00921021,
6226,-0.020752,0.00931396,
6228,-0.0158691,0.00921631,
6230,0.00244141,0.00913086,
6232,-0.00305176,0.00910034,
6234,-0.00366211,0.0090332,
6236,-0.0164795,0.009198,
6238,-0.00915527,0.00918579,
6240,0.00366211,0.00898438,
6242,0.00732422,0.00905762,
6244,-0.010376,0.00909424,
6246,-0.0201416,0.00917358,
6248,0.0012207,0.00898438,
6250,0.00915527,0.00899048,
6252,-0.00488281,0.00894775,
6254,-0.0140381,0.00900879,
6256,0.00671387,0.0090271,
6258,0.00427246,0.00888672,
6260,-0.00854492,0.00886841,
6262,-0.00854492,0.00894165,
6264,0.00183105,0.00872803,
6266,-0.00305176,0.00859985,
6268,-0.0109863,0.00857544,
6270,-0.00427246,0.00860596,
6272,-0.0238037,0.00866699,
6274,-0.0012207,0.00837402,
6276,0.000610352,0.00836792,
6278,-0.00610352,0.00830688,
6280,-0.0170898,0.00831909,
6282,0.00488281,0.00834961,
6284,0.00549316,0.00839844,
6286,0.00305176,0.00839233,
6288,0.00793457,0.0083252,
6290,-0.0177002,0.00842285,
6292,0,0.00821533,
6294,0.0115967,0.00824585,
6296,-0.0152588,0.00836182,
6298,-0.0189209,0.0085144,
6300,-0.0183105,0.00861816,
6302,-0.00488281,0.00856323,
6304,-0.00854492,0.00860596,
6306,-0.0115967,0.00852051,
6308,-0.00183105,0.00846558,
6310,0.00183105,0.00841064,
6312,-0.00915527,0.00841064,
6314,0.00244141,0.00839844,
6316,-0.0152588,0.00845337,
6318,0.00244141,0.00842285,
6320,0.00671387,0.00838623,
6322,-0.0158691,0.0085083,
6324,-0.00610352,0.00856934,
6326,-0.00854492,0.00838013,
6328,0.000610352,0.00825195,
6330,0.00366211,0.00821533,
6332,-0.00244141,0.00808105,
6334,-0.00366211,0.00803223,
6336,-0.00427246,0.00789185,
6338,0.00854492,0.00785522,
6340,-0.00915527,0.00782471,
6342,-0.00976563,0.00773315,
6344,-0.00549316,0.00759277,
6346,-0.0152588,0.00745239,
6348,0.0140381,0.00748901,
6350,-0.0158691,0.00756226,
6352,-0.00671387,0.00753174,
6354,0,0.00751343,
6356,-0.000610352,0.00737915,
6358,-0.010376,0.0074646,
6360,0.00244141,0.00744629,
6362,-0.00488281,0.00748901,
6364,-0.00366211,0.00743408,
6366,-0.0109863,0.00738525,
6368,0.00427246,0.00735474,
6370,-0.00671387,0.00737305,
6372,-0.00976563,0.00742187,
6374,0.00305176,0.00738525,
6376,-0.00915527,0.00744629,
6378,0.010376,0.0074707,
6380,-0.00183105,0.00736694,
6382,-0.000610352,0.00725098,
6384,0.00671387,0.0072937,
6386,-0.00732422,0.00736084,
6388,0.00244141,0.00731201,
6390,0.000610352,0.0072937,
6392,-0.0164795,0.00727539,
6394,0.00183105,0.00720215,
6396,0.00244141,0.00715942,
6398,-0.0012207,0.00716553,
6400,-0.00732422,0.00723877,
6402,-0.0195313,0.00736084,
6404,0.0170898,0.00750732,
6406,-0.00854492,0.00751953,
6408,0.000610352,0.0074585,
6410,0.00610352,0.0074585,
6412,-0.00854492,0.00750122,
6414,0.00427246,0.00751343,
6416,-0.00671387,0.00755005,
6418,-0.00183105,0.00756226,
6420,-0.00366211,0.00752563,
6422,0.0183105,0.00759888,
6424,-0.0109863,0.00768433,
6426,-0.0140381,0.00761719,
6428,0.00671387,0.00752563,
6430,0.00488281,0.00755005,
6432,0.00366211,0.00755615,
6434,-0.0134277,0.00765381,
6436,0,0.00748901,
6438,0.0146484,0.00754395,
6440,0.00976563,0.00760498,
6442,-0.00793457,0.00761108,
6444,-0.00610352,0.00756836,
6446,-0.010376,0.0074707,
6448,0.0012207,0.0074707,
6450,-0.00732422,0.00745239,
6452,-0.0195313,0.00759888,
6454,-0.0158691,0.00761719,
6456,-0.0189209,0.00773926,
6458,0.000610352,0.00770264,
6460,-0.0195313,0.0078125,
6462,-0.00854492,0.0078125,
6464,0.0164795,0.00795898,
6466,-0.0140381,0.00806885,
6468,-0.0146484,0.00810547,
6470,0.0012207,0.00807495,
6472,-0.00488281,0.00788574,
6474,-0.0012207,0.00788574,
6476,-0.00976563,0.00797729,
6478,-0.00976563,0.00801392,
6480,0,0.00784302,
6482,-0.00610352,0.00785522,
6484,-0.00976563,0.00789795,
6486,-0.00488281,0.00791626,
6488,0.00915527,0.00792847,
6490,-0.00427246,0.00779419,
6492,-0.0146484,0.00794067,
6494,-0.0109863,0.00793457,
6496,-0.0012207,0.00779419,
6498,-0.00610352,0.00766602,
6500,-0.0115967,0.00759888,
6502,-0.0189209,0.00773926,
6504,0.00244141,0.00767822,
6506,-0.00549316,0.00761719,
6508,-0.0128174,0.00772705,
6510,-0.0134277,0.00784302,
6512,0.00915527,0.00784302,
6514,-0.010376,0.00792236,
6516,-0.00488281,0.0078186,
6518,-0.00305176,0.00782471,
6520,0.000610352,0.00776367,
6522,-0.0238037,0.00784302,
6524,0.00854492,0.00786743,
6526,-0.00305176,0.0078125,
6528,-0.0164795,0.00797119,
6530,-0.00671387,0.00800171,
6532,0.0109863,0.00808716,
6534,-0.0128174,0.00817871,
6536,-0.0012207,0.00814819,
6538,-0.00976563,0.0081604,
6540,-0.00305176,0.00809937,
6542,-0.0152588,0.0081543,
6544,0.00427246,0.00814209,
6546,0.012207,0.00811157,
6548,-0.00549316,0.00802612,
6550,-0.0115967,0.0079834,
6552,-0.00854492,0.00800171,
6554,0.0115967,0.00811768,
6556,0,0.00811157,
6558,0,0.00800781,
6560,-0.0158691,0.00814209,
6562,-0.000610352,0.00809937,
6564,0.00976563,0.0081604,
6566,-0.000610352,0.00805664,
6568,-0.00732422,0.00808716,
6570,-0.00366211,0.00805664,
6572,-0.00854492,0.00804443,
6574,0.00366211,0.00805054,
6576,-0.00183105,0.00797729,
6578,-0.00976563,0.00797119,
6580,-0.00976563,0.00805054,
6582,-0.010376,0.00814819,
6584,0.0012207,0.00809326,
6586,-0.00183105,0.00803833,
6588,-0.0109863,0.00812378,
6590,-0.00366211,0.0081543,
6592,-0.00854492,0.00807495,
6594,-0.000610352,0.00806274,
6596,-0.00427246,0.00808105,
6598,-0.00305176,0.00809937,
6600,-0.010376,0.00812988,
6602,-0.00244141,0.00795898,
6604,-0.0012207,0.00780029,
6606,0.000610352,0.00772095,
6608,-0.00183105,0.00773315,
6610,-0.00244141,0.00769653,
6612,-0.010376,0.00771484,
6614,0.00610352,0.00773315,
6616,0.00732422,0.00773926,
6618,-0.00366211,0.00775757,
6620,-0.00366211,0.00775757,
6622,-0.0115967,0.00769043,
6624,0.0152588,0.00773315,
6626,0.0012207,0.00760498,
6628,-0.00854492,0.00762329,
6630,-0.0140381,0.00771484,
6632,-0.0115967,0.00779419,
6634,0.00610352,0.00772095,
6636,-0.0109863,0.00783081,
6638,0.00427246,0.00772705,
6640,-0.00793457,0.00770874,
6642,-0.00305176,0.00765991,
6644,0.00976563,0.00769653,
6646,-0.022583,0.0078186,
6648,0.0115967,0.00792236,
6650,-0.0109863,0.00795898,
6652,0.00366211,0.00780029,
6654,-0.0128174,0.00776978,
6656,-0.0268555,0.00784912,
6658,0.000610352,0.00784912,
6660,-0.0195313,0.00784912,
6662,-0.000610352,0.00776978,
6664,-0.00488281,0.00765381,
6666,-0.0317383,0.00783081,
6668,-0.00244141,0.00770874,
6670,0.00244141,0.00772095,
6672,0.00366211,0.00770874,
6674,-0.00305176,0.00772705,
6676,-0.0170898,0.00780029,
6678,-0.00427246,0.00774536,
6680,0.00183105,0.00776367,
6682,0,0.00770264,
6684,-0.0177002,0.00778198,
6686,-0.00976563,0.00783081,
6688,-0.00854492,0.00782471,
6690,-0.0189209,0.00797119,
6692,-0.0146484,0.00797119,
6694,-0.0146484,0.00800781,
6696,0,0.00799561,
6698,-0.00793457,0.00801392,
6700,-0.0183105,0.00808105,
6702,-0.00427246,0.00793457,
6704,0.00427246,0.00795288,
6706,-0.00671387,0.00796509,
6708,0.00915527,0.00792847,
6710,-0.0140381,0.00793457,
6712,-0.00244141,0.00786743,
6714,0.00610352,0.00782471,
6716,-0.00610352,0.00783691,
6718,-0.0128174,0.00793457,
6720,-0.0140381,0.00806885,
6722,-0.00244141,0.00785522,
6724,-0.000610352,0.00777588,
6726,-0.0164795,0.00791016,
6728,-0.0146484,0.00789185,
6730,-0.0012207,0.00783691,
6732,-0.00183105,0.00774536,
6734,-0.0115967,0.00773315,
6736,-0.00366211,0.00775757,
6738,-0.00610352,0.00772095,
6740,-0.00427246,0.00773315,
6742,-0.00976563,0.00767822,
6744,-0.00793457,0.00771484,
6746,-0.00366211,0.00762939,
6748,-0.00488281,0.00762329,
6750,-0.00427246,0.00755005,
6752,-0.00183105,0.00748291,
6754,-0.010376,0.0074707,
6756,0,0.0074707,
6758,0.00610352,0.00753174,
6760,-0.00244141,0.00739746,
6762,-0.0183105,0.00757446,
6764,0.0134277,0.00761108,
6766,0,0.00760498,
6768,-0.00366211,0.00756836,
6770,-0.012207,0.00765381,
6772,-0.00427246,0.00761108,
6774,-0.00366211,0.00761108,
6776,-0.00366211,0.00762939,
6778,0.0012207,0.00754395,
6780,-0.0152588,0.00759888,
6782,-0.00183105,0.00751343,
6784,0.00427246,0.00754395,
6786,0.00610352,0.00758667,
6788,-0.00427246,0.00751953,
6790,0.00488281,0.00753174,
6792,-0.0238037,0.00768433,
6794,0.00549316,0.00773315,
6796,0.00793457,0.00776978,
6798,-0.0311279,0.00805054,
6800,-0.0109863,0.00805664,
6802,-0.00183105,0.00805054,
6804,-0.00366211,0.00807495,
6806,-0.00915527,0.0081604,
6808,0.0012207,0.0081543,
6810,0.00610352,0.00819092,
6812,0.00732422,0.0081604,
6814,0.000610352,0.00810547,
6816,-0.00915527,0.00812378,
6818,-0.00244141,0.00811157,
6820,0.00427246,0.00811768,
6822,-0.0134277,0.00813599,
6824,-0.0183105,0.0081665,
6826,-0.0012207,0.0081665,
6828,0.00549316,0.00813599,
6830,-0.0109863,0.00810547,
6832,-0.0201416,0.00819092,
6834,0.00976563,0.00822754,
6836,-0.0109863,0.00822754,
6838,0.00549316,0.00823975,
6840,0,0.0081604,
6842,-0.00915527,0.00822144,
6844,-0.000610352,0.00812988,
6846,-0.00244141,0.00792847,
6848,0.00183105,0.00783081,
6850,0.000610352,0.00772705,
6852,-0.0109863,0.00780029,
6854,0,0.00767212,
6856,-0.0128174,0.00753174,
6858,0.000610352,0.00753174,
6860,0.00183105,0.00735474,
6862,-0.012207,0.0074707,
6864,-0.00671387,0.00748901,
6866,0.00549316,0.00722656,
6868,0.0140381,0.00734253,
6870,-0.0262451,0.00758057,
6872,-0.00915527,0.0076355,
6874,0.00488281,0.00765381,
6876,-0.010376,0.00758667,
6878,-0.00854492,0.00762939,
6880,-0.000610352,0.00761719,
6882,-0.0170898,0.00778809,
6884,-0.00915527,0.00770264,
6886,-0.00427246,0.00764771,
6888,0.00549316,0.00761719,
6890,-0.0134277,0.00756226,
6892,-0.0158691,0.00757446,
6894,0.00671387,0.00749512,
6896,-0.00915527,0.00758667,
6898,-0.00976563,0.00760498,
6900,-0.00366211,0.0074585,
6902,-0.00366211,0.00745239,
6904,-0.0128174,0.00753784,
6906,-0.00488281,0.00751953,
6908,-0.00244141,0.00745239,
6910,-0.00183105,0.00733032,
6912,-0.012207,0.00742798,
6914,-0.00549316,0.00742187,
6916,-0.00732422,0.00743408,
6918,0.00427246,0.00734863,
6920,-0.00976563,0.00730591,
6922,-0.00793457,0.00736084,
6924,-0.0109863,0.0074646,
6926,0.00183105,0.00731812,
6928,-0.00488281,0.00722046,
6930,-0.0115967,0.00732422,
6932,-0.00366211,0.00734253,
6934,0.00427246,0.00726929,
6936,0.000610352,0.00723877,
6938,-0.00366211,0.00721436,
6940,-0.00671387,0.00723877,
6942,0.00427246,0.00718384,
6944,-0.00610352,0.00716553,
6946,0.00305176,0.00715942,
6948,-0.0146484,0.00725708,
6950,-0.0244141,0.0074585,
6952,0.00488281,0.00748901,
6954,-0.0146484,0.00753174,
6956,-0.0170898,0.00770264,
6958,-0.0109863,0.00775146,
6960,-0.0201416,0.00792847,
6962,-0.00976563,0.00784302,
6964,-0.0012207,0.00772095,
6966,-0.0109863,0.00783081,
6968,-0.00793457,0.00787354,
6970,0.00854492,0.00783691,
6972,-0.00244141,0.0078186,
6974,0.00610352,0.00784302,
6976,-0.00366211,0.00784302,
6978,-0.00488281,0.00787964,
6980,-0.0012207,0.00773926,
6982,0.0012207,0.00773315,
6984,-0.00183105,0.00770874,
6986,-0.00671387,0.00771484,
6988,-0.00976563,0.00776978,
6990,0.00305176,0.00775146,
6992,-0.0231934,0.00774536,
6994,0,0.00769043,
6996,-0.0158691,0.00776978,
6998,-0.00488281,0.00750732,
7000,-0.0231934,0.00762939,
7002,-0.012207,0.00773315,
7004,0.00366211,0.00773315,
7006,-0.012207,0.00776367,
7008,-0.0231934,0.0079834,
7010,0,0.00792236,
7012,-0.00976563,0.00794678,
7014,0.000610352,0.00794678,
7016,0.00244141,0.00787964,
7018,-0.0158691,0.00801392,
7020,-0.00793457,0.00805054,
7022,0.00488281,0.00796509,
7024,0.00244141,0.0078064,
7026,-0.0012207,0.0078064,
7028,-0.00610352,0.0078125,
7030,0.00732422,0.00777588,
7032,0.00244141,0.00759888,
7034,-0.00427246,0.00754395,
7036,-0.0152588,0.00758667,
7038,0,0.00753174,
7040,0.00549316,0.00758667,
7042,-0.020752,0.00770264,
7044,-0.00732422,0.00776978,
7046,-0.012207,0.00786743,
7048,-0.0164795,0.00801392,
7050,-0.0213623,0.00822144,
7052,0.0012207,0.00812378,
7054,0.00549316,0.00817871,
7056,-0.010376,0.0081543,
7058,-0.00915527,0.00823975,
7060,-0.00793457,0.00830078,
7062,-0.00488281,0.00822754,
7064,0.0201416,0.00836182,
7066,-0.0152588,0.00845947,
7068,-0.0152588,0.00847168,
7070,-0.00244141,0.00823364,
7072,0.00244141,0.0081665,
7074,-0.00610352,0.00817871,
7076,-0.00244141,0.00809937,
7078,-0.0189209,0.00820313,
7080,-0.00732422,0.00827026,
7082,0.0115967,0.00821533,
7084,-0.0170898,0.00829468,
7086,-0.0152588,0.00840454,
7088,0.00610352,0.00841064,
7090,0.0012207,0.00828857,
7092,-0.00366211,0.0081665,
7094,0.00549316,0.0081543,
7096,-0.00671387,0.00812988,
7098,-0.00305176,0.00806274,
7100,0.0109863,0.00813599,
7102,0.010376,0.00820313,
7104,-0.0292969,0.00836792,
7106,-0.00976563,0.00841675,
7108,0.00915527,0.00848389,
7110,-0.0177002,0.00864258,
7112,-0.0146484,0.00866699,
7114,-0.00244141,0.00863647,
7116,-0.00183105,0.00858154,
7118,0.00244141,0.00856323,
7120,-0.00915527,0.00855713,
7122,-0.010376,0.00858154,
7124,0.0012207,0.00848389,
7126,-0.00671387,0.00853271,
7128,-0.00976563,0.00858154,
7130,-0.00549316,0.00852051,
7132,-0.0134277,0.00861816,
7134,-0.00976563,0.0086731,
7136,0.0012207,0.0086792,
7138,-0.012207,0.00876465,
7140,-0.00488281,0.00874634,
7142,-0.0012207,0.00871582,
7144,0.00183105,0.0086731,
7146,-0.00854492,0.00872803,
7148,0.00244141,0.00860596,
7150,-0.0170898,0.00853271,
7152,-0.00854492,0.00856934,
7154,0.00854492,0.0085083,
7156,-0.0109863,0.00844727,
7158,-0.0183105,0.00852051,
7160,0.0134277,0.00845337,
7162,-0.00854492,0.00844116,
7164,-0.0012207,0.00844116,
7166,-0.010376,0.00843506,
7168,-0.0134277,0.00848999,
7170,0.000610352,0.00841064,
7172,0.00183105,0.00840454,
7174,-0.00488281,0.00839233,
7176,-0.0109863,0.00846558,
7178,0.0012207,0.00842896,
7180,-0.0140381,0.00855713,
7182,-0.0146484,0.00869141,
7184,0.010376,0.00877686,
7186,-0.0115967,0.00882568,
7188,-0.00732422,0.00880127,
7190,0.000610352,0.00877686,
7192,-0.0146484,0.00869141,
7194,-0.00427246,0.00873413,
7196,-0.00488281,0.00862427,
7198,0.0134277,0.00870972,
7200,-0.00610352,0.00853882,
7202,-0.012207,0.00853882,
7204,0.000610352,0.0085083,
7206,0.0201416,0.00858765,
7208,-0.00915527,0.00844727,
7210,-0.00976563,0.00854492,
7212,-0.00610352,0.0085083,
7214,0.00549316,0.00855713,
7216,-0.0128174,0.00866089,
7218,-0.00854492,0.00858765,
7220,-0.00854492,0.00859375,
7222,-0.00427246,0.00858765,
7224,-0.010376,0.00866699,
7226,-0.0109863,0.00876465,
7228,-0.00732422,0.00877686,
7230,0.00915527,0.00879517,
7232,0.00610352,0.00883179,
7234,-0.0280762,0.00906982,
7236,-0.0183105,0.00910034,
7238,0.00793457,0.00917969,
7240,-0.00549316,0.00917969,
7242,-0.0177002,0.00914917,
7244,-0.0140381,0.00921631,
7246,-0.010376,0.009198,
7248,0.00549316,0.00908813,
7250,-0.0177002,0.00905151,
7252,0.0128174,0.00916748,
7254,0.00366211,0.00914917,
7256,-0.00305176,0.00907593,
7258,-0.00366211,0.009021,
7260,-0.0152588,0.00909424,
7262,0.00305176,0.00907593,
7264,0.00183105,0.00889282,
7266,-0.0170898,0.00891113,
7268,-0.00671387,0.00882568,
7270,-0.000610352,0.00880737,
7272,-0.00915527,0.00887451,
7274,-0.000610352,0.00881958,
7276,-0.00793457,0.00887451,
7278,0.012207,0.00880737,
7280,-0.00244141,0.00875854,
7282,0.00244141,0.00866699,
7284,-0.00305176,0.00852661,
7286,-0.00366211,0.00841064,
7288,0.00244141,0.00837402,
7290,-0.0140381,0.0085022,
7292,0.00671387,0.00853271,
7294,0.00183105,0.00849609,
7296,-0.0262451,0.00869141,
7298,-0.00549316,0.00871582,
7300,0.0012207,0.00861816,
7302,-0.00488281,0.00856323,
7304,0.00183105,0.00828857,
7306,0.00915527,0.00828247,
7308,-0.00183105,0.00820923,
7310,0.00488281,0.00808105,
7312,0.0012207,0.00794678,
7314,-0.000610352,0.00792847,
7316,-0.0201416,0.00811157,
7318,-0.00671387,0.0081543,
7320,-0.000610352,0.00806885,
7322,-0.0274658,0.00823975,
7324,-0.0268555,0.00849609,
7326,-0.0170898,0.00859985,
7328,-0.00549316,0.00855713,
7330,-0.0140381,0.00864258,
7332,-0.00976563,0.00860596,
7334,-0.00366211,0.00854492,
7336,-0.00732422,0.00860596,
7338,-0.00244141,0.0085083,
7340,-0.00610352,0.00852051,
7342,-0.0177002,0.0086853,
7344,-0.00671387,0.00873413,
7346,0.00549316,0.00870361,
7348,0.00366211,0.00871582,
7350,-0.0195313,0.00874023,
7352,-0.00976563,0.00875244,
7354,0.00305176,0.00869751,
7356,-0.0134277,0.00872192,
7358,-0.00732422,0.00861206,
7360,-0.00183105,0.00849609,
7362,-0.0128174,0.00853882,
7364,-0.010376,0.00863037,
7366,-0.00976563,0.00862427,
7368,-0.010376,0.00859375,
7370,-0.00183105,0.00860596,
7372,-0.0109863,0.00869751,
7374,-0.00610352,0.00870972,
7376,-0.0140381,0.00874023,
7378,0.00671387,0.00879517,
7380,-0.0115967,0.00877075,
7382,-0.00854492,0.00870972,
7384,-0.012207,0.00872803,
7386,0.00305176,0.00864258,
7388,-0.00732422,0.00864258,
7390,-0.0158691,0.00879517,
7392,-0.00427246,0.00869141,
7394,0.0012207,0.00866089,
7396,-0.00793457,0.00869141,
7398,-0.00854492,0.00864258,
7400,0.00366211,0.00861816,
7402,-0.010376,0.00859985,
7404,0.00244141,0.00861816,
7406,-0.00366211,0.00845337,
7408,-0.00732422,0.00843506,
7410,-0.00366211,0.00837402,
7412,-0.0219727,0.00853271,
7414,-0.00427246,0.00852051,
7416,-0.012207,0.0085144,
7418,-0.00366211,0.00846558,
7420,-0.0170898,0.00855103,
7422,0.0012207,0.00852051,
7424,-0.00976563,0.0085144,
7426,-0.0115967,0.00852051,
7428,0.00610352,0.0085083,
7430,-0.00488281,0.00846558,
7432,-0.0146484,0.00855103,
7434,-0.0109863,0.00838013,
7436,-0.00366211,0.00823364,
7438,0.00976563,0.00825195,
7440,-0.00183105,0.00821533,
7442,-0.00610352,0.00809937,
7444,0.00976563,0.00805664,
7446,-0.00854492,0.00803833,
7448,-0.00793457,0.00806274,
7450,-0.0109863,0.00799561,
7452,0.00427246,0.00791016,
7454,-0.00671387,0.00794067,
7456,-0.022583,0.00813599,
7458,-0.0128174,0.00822754,
7460,-0.0146484,0.00822144,
7462,-0.00732422,0.00826416,
7464,0.00183105,0.00826416,
7466,-0.00488281,0.00814209,
7468,-0.00976563,0.00817261,
7470,-0.00610352,0.00822754,
7472,-0.00854492,0.00822144,
7474,0.0012207,0.00822754,
7476,-0.00610352,0.00820923,
7478,-0.00732422,0.0081604,
7480,-0.00183105,0.0081543,
7482,0.00427246,0.00817261,
7484,-0.00671387,0.00820923,
7486,-0.00671387,0.00823975,
7488,-0.00305176,0.00824585,
7490,-0.0158691,0.00826416,
7492,-0.020752,0.00840454,
7494,-0.0012207,0.00839844,
7496,-0.0134277,0.00827026,
7498,-0.010376,0.00831909,
7500,-0.00976563,0.00840454,
7502,-0.0164795,0.00852051,
7504,-0.00183105,0.00852051,
7506,0.0158691,0.00858765,
7508,-0.00793457,0.00864868,
7510,-0.00610352,0.00866089,
7512,-0.00610352,0.00870972,
7514,-0.00671387,0.00877075,
7516,0.000610352,0.00857544,
7518,-0.0115967,0.00862427,
7520,-0.0177002,0.00879517,
7522,-0.00610352,0.00858154,
7524,0.00610352,0.00837402,
7526,-0.00244141,0.00822754,
7528,0.00183105,0.00819092,
7530,-0.00427246,0.00809326,
7532,0.00549316,0.00805054,
7534,-0.00305176,0.00804443,
7536,0,0.00797119,
7538,-0.00610352,0.00800781,
7540,-0.00732422,0.00802002,
7542,-0.0158691,0.00800171,
7544,0.00305176,0.00796509,
7546,-0.0183105,0.00809326,
7548,-0.00244141,0.00808105,
7550,-0.00183105,0.00790405,
7552,-0.010376,0.00791016,
7554,-0.00366211,0.00791626,
7556,-0.00915527,0.00787354,
7558,0.00244141,0.00782471,
7560,0.00854492,0.00789185,
7562,-0.00915527,0.00785522,
7564,-0.0128174,0.00787964,
7566,-0.010376,0.00788574,
7568,-0.00427246,0.00782471,
7570,-0.00183105,0.00782471,
7572,-0.0195313,0.00791016,
7574,-0.0134277,0.0079834,
7576,-0.00976563,0.00794067,
7578,-0.012207,0.00799561,
7580,-0.00610352,0.00794067,
7582,-0.00549316,0.00791016,
7584,0,0.00778809,
7586,-0.00427246,0.00780029,
7588,-0.00183105,0.00774536,
7590,-0.00732422,0.00765991,
7592,-0.00549316,0.00767212,
7594,-0.0012207,0.00767212,
7596,-0.00915527,0.00768433,
7598,0.00244141,0.00762329,
7600,-0.000610352,0.00759277,
7602,0.00854492,0.00757446,
7604,0.0244141,0.00779419,
7606,-0.00793457,0.00783691,
7608,-0.020752,0.00797119,
7610,0.00976563,0.00803223,
7612,-0.00610352,0.00787354,
7614,-0.00427246,0.00787354,
7616,-0.0305176,0.00805664,
7618,-0.0219727,0.00823975,
7620,-0.0170898,0.00823975,
7622,-0.020752,0.00843506,
7624,-0.00671387,0.00840454,
7626,-0.00976563,0.00838623,
7628,-0.00549316,0.00838013,
7630,-0.0115967,0.00844727,
7632,-0.00183105,0.00831909,
7634,-0.0012207,0.00822144,
7636,-0.00305176,0.00821533,
7638,-0.00244141,0.00814209,
7640,-0.00793457,0.00820313,
7642,-0.00427246,0.00818481,
7644,0.00671387,0.0081543,
7646,-0.0146484,0.00821533,
7648,0.010376,0.00823975,
7650,0.00488281,0.00817871,
7652,-0.00244141,0.0081604,
7654,0.000610352,0.00809937,
7656,-0.0128174,0.00800171,
7658,0.00549316,0.00792847,
7660,0.012207,0.00790405,
7662,-0.0231934,0.00806274,
7664,0.010376,0.00814819,
7666,-0.0231934,0.0083313,
7668,-0.00549316,0.00828857,
7670,-0.00488281,0.00827637,
7672,0.00793457,0.00827026,
7674,0.00488281,0.00830688,
7676,-0.0189209,0.00843506,
7678,0.00305176,0.00839233,
7680,-0.00488281,0.00842285,
7682,-0.00854492,0.00846558,
7684,-0.0115967,0.0085144,
7686,-0.0201416,0.00864868,
7688,0.00366211,0.00865479,
7690,-0.0201416,0.00869751,
7692,-0.0183105,0.0086731,
7694,-0.00732422,0.00873413,
7696,-0.0170898,0.00877075,
7698,0.0115967,0.00878296,
7700,-0.00549316,0.00874023,
7702,0.0115967,0.00869141,
7704,-0.0262451,0.00893555,
7706,0.00732422,0.0088501,
7708,0.00793457,0.0088501,
7710,-0.00488281,0.00883789,
7712,-0.00427246,0.00881958,
7714,0.00427246,0.00879517,
7716,-0.012207,0.00891113,
7718,-0.00488281,0.00884399,
7720,-0.0134277,0.00880127,
7722,-0.00244141,0.00876465,
7724,-0.00366211,0.00874023,
7726,-0.00549316,0.00877075,
7728,-0.00549316,0.00880737,
7730,-0.0146484,0.00891113,
7732,-0.00671387,0.00892334,
7734,-0.00610352,0.00895386,
7736,-0.00610352,0.00901489,
7738,-0.00244141,0.00897827,
7740,-0.00366211,0.00894165,
7742,-0.00305176,0.00881348,
7744,-0.00183105,0.00880127,
7746,-0.0170898,0.00878906,
7748,-0.00244141,0.00878906,
7750,0.00305176,0.00880127,
7752,-0.00915527,0.00878906,
7754,-0.00427246,0.00879517,
7756,-0.0109863,0.00881348,
7758,-0.00671387,0.0088562,
7760,-0.00427246,0.00881348,
7762,0.00915527,0.00881348,
7764,-0.0219727,0.00890503,
7766,-0.0134277,0.00893555,
7768,0.00549316,0.00894775,
7770,-0.0201416,0.00913086,
7772,-0.00549316,0.00899048,
7774,-0.00854492,0.00894165,
7776,-0.00549316,0.00889893,
7778,-0.0238037,0.00901489,
7780,-0.0012207,0.00896606,
7782,0.0012207,0.00892334,
7784,-0.00244141,0.00894775,
7786,0.00610352,0.00896606,
7788,-0.0213623,0.00916138,
7790,-0.00671387,0.00915527,
7792,0.0012207,0.00911255,
7794,-0.0164795,0.00926514,
7796,-0.010376,0.00927734,
7798,-0.0177002,0.00942993,
7800,-0.00854492,0.00950928,
7802,-0.00549316,0.00947876,
7804,-0.00488281,0.00928345,
7806,-0.00671387,0.00927124,
7808,0.0012207,0.00907593,
7810,0.00366211,0.00901489,
7812,0.00244141,0.00897827,
7814,0,0.00893555,
7816,-0.00305176,0.00866089,
7818,0.00305176,0.00847168,
7820,-0.010376,0.00840454,
7822,-0.0140381,0.0083374,
7824,-0.000610352,0.00827637,
7826,0.0109863,0.00828857,
7828,-0.022583,0.00845947,
7830,-0.0268555,0.00861206,
7832,0.0201416,0.00879517,
7834,-0.000610352,0.00878906,
7836,-0.0164795,0.00892334,
7838,-0.00610352,0.00895996,
7840,-0.012207,0.00900269,
7842,0.00671387,0.0090271,
7844,-0.0012207,0.00897217,
7846,-0.0311279,0.00913696,
7848,0.00976563,0.00913086,
7850,0.0128174,0.00921021,
7852,-0.0274658,0.00946045,
7854,0.0152588,0.00960693,
7856,0.00427246,0.00952148,
7858,-0.0146484,0.00961304,
7860,0.00854492,0.00957642,
7862,-0.00610352,0.00940552,
7864,-0.00549316,0.00935669,
7866,-0.0012207,0.00913696,
7868,-0.0128174,0.00921021,
7870,-0.0128174,0.00928955,
7872,-0.00976563,0.00930786,
7874,-0.012207,0.0093811,
7876,-0.00976563,0.00928955,
7878,0.0012207,0.00927124,
7880,-0.00183105,0.00924072,
7882,0.00244141,0.00917969,
7884,-0.012207,0.00918579,
7886,-0.00915527,0.00907593,
7888,0.0128174,0.00916748,
7890,-0.00305176,0.00899658,
7892,-0.0189209,0.00900269,
7894,0.000610352,0.00893555,
7896,-0.0164795,0.00892944,
7898,0.00610352,0.00887451,
7900,-0.00488281,0.00886841,
7902,-0.0115967,0.00886841,
7904,-0.00976563,0.00870361,
7906,0.00366211,0.00866699,
7908,-0.00793457,0.00866699,
7910,-0.00183105,0.00863647,
7912,-0.012207,0.00871582,
7914,0.00732422,0.00874634,
7916,-0.0195313,0.00881958,
7918,0.00427246,0.00881348,
7920,-0.00610352,0.00874023,
7922,-0.00488281,0.00876465,
7924,-0.00427246,0.00877075,
7926,-0.00915527,0.00880737,
7928,0.00671387,0.00881958,
7930,-0.012207,0.00879517,
7932,-0.00427246,0.00877075,
7934,0.00671387,0.00877686,
7936,-0.0012207,0.00872803,
7938,-0.00366211,0.00874023,
7940,-0.00427246,0.00874634,
7942,0.00488281,0.00876465,
7944,-0.00305176,0.00877686,
7946,-0.00671387,0.0086731,
7948,-0.00915527,0.00874023,
7950,0.00366211,0.00874634,
7952,-0.00366211,0.00869141,
7954,0.0164795,0.00881348,
7956,0.000610352,0.00870972,
7958,-0.00427246,0.0086853,
7960,-0.00488281,0.00869141,
7962,0.00549316,0.00865479,
7964,-0.0012207,0.00844727,
7966,-0.00732422,0.00838623,
7968,-0.0115967,0.00844727,
7970,-0.00244141,0.00827026,
7972,-0.0109863,0.0083252,
7974,-0.0012207,0.00825195,
7976,-0.00488281,0.00824585,
7978,-0.00427246,0.00805054,
7980,0.00427246,0.00808105,
7982,-0.00183105,0.00808716,
7984,-0.0146484,0.00820923,
7986,0,0.00814819,
7988,-0.0109863,0.00804443,
7990,-0.0189209,0.0081665,
7992,0.00488281,0.00820313,
7994,-0.0128174,0.0081665,
7996,-0.0170898,0.00823364,
7998,0.00488281,0.00810547,
8000,-0.0152588,0.00817261,
8002,-0.00244141,0.00814209,
8004,-0.00854492,0.00817871,
8006,-0.00427246,0.0081543,
8008,-0.00305176,0.00817261,
8010,-0.0164795,0.00830078,
8012,-0.00305176,0.00830688,
8014,-0.00366211,0.00834351,
8016,0.00244141,0.0083374,
8018,-0.0183105,0.00848999,
8020,-0.00427246,0.00842896,
8022,-0.00854492,0.00837402,
8024,0.0134277,0.0085022,
8026,-0.0134277,0.00852661,
8028,-0.00244141,0.0083252,
8030,-0.00305176,0.00808716,
8032,0.00305176,0.00791626,
8034,-0.0152588,0.00806274,
8036,-0.00671387,0.00796509,
8038,-0.00366211,0.00794067,
8040,-0.00244141,0.00784302,
8042,0.000610352,0.00778198,
8044,-0.012207,0.00789185,
8046,-0.022583,0.0078064,
8048,-0.00427246,0.00775146,
8050,-0.00854492,0.00770874,
8052,-0.00732422,0.00750732,
8054,-0.00366211,0.00739136,
8056,-0.012207,0.0074707,
8058,-0.010376,0.00742798,
8060,-0.010376,0.00744629,
8062,-0.00671387,0.00745239,
8064,0.0115967,0.00751343,
8066,-0.00732422,0.00757446,
8068,-0.0183105,0.00762939,
8070,0.00549316,0.00755615,
8072,-0.00488281,0.00750732,
8074,0.00366211,0.00742187,
8076,0.000610352,0.00733032,
8078,0.00793457,0.00739746,
8080,-0.0146484,0.00752563,
8082,0.00183105,0.00751953,
8084,0.00244141,0.00742187,
8086,-0.0128174,0.0074585,
8088,-0.00244141,0.00735474,
8090,-0.0189209,0.00751343,
8092,-0.00976563,0.00742187,
8094,-0.000610352,0.00742187,
8096,-0.0152588,0.00740967,
8098,-0.0213623,0.00756226,
8100,0.00549316,0.00756836,
8102,-0.00305176,0.00748291,
8104,-0.00915527,0.00747681,
8106,-0.00366211,0.00747681,
8108,-0.00366211,0.00743408,
8110,-0.00915527,0.00750732,
8112,-0.00793457,0.0074646,
8114,0.00793457,0.0074707,
8116,-0.012207,0.00739746,
8118,-0.012207,0.00747681,
8120,0,0.00741577,
8122,-0.00732422,0.00744019,
8124,-0.00549316,0.00745239,
8126,-0.0128174,0.00748901,
8128,0,0.00742187,
8130,-0.010376,0.00740356,
8132,-0.00305176,0.00739136,
8134,-0.00488281,0.00737305,
8136,0,0.00736084,
8138,-0.00976563,0.00742187,
8140,-0.00915527,0.0074707,
8142,-0.0012207,0.00743408,
8144,0.00610352,0.0074646,
8146,-0.0164795,0.00756226,
8148,-0.00671387,0.00753784,
8150,-0.0238037,0.00773926,
8152,-0.0140381,0.00784302,
8154,-0.0177002,0.00785522,
8156,0,0.00784912,
8158,-0.0195313,0.00800171,
8160,-0.0256348,0.00820923,
8162,-0.0183105,0.0083374,
8164,0.00732422,0.00839844,
8166,-0.0158691,0.00848389,
8168,-0.000610352,0.00837402,
8170,0.00854492,0.00843506,
8172,-0.0115967,0.00844116,
8174,-0.00610352,0.00848999,
8176,-0.00488281,0.00848999,
8178,-0.00793457,0.00852661,
8180,-0.00488281,0.00853271,
8182,-0.0109863,0.00862427,
8184,-0.0128174,0.00860596,
8186,-0.0177002,0.00878296,
8188,-0.0012207,0.0086853,
8190,-0.010376,0.00859985,
8192,-0.00549316,0.00860596,
8194,0.00793457,0.00855713,
8196,-0.0134277,0.00852051,
8198,-0.00427246,0.0085144,
8200,-0.00244141,0.00838623,
8202,-0.00671387,0.00842896,
8204,-0.00488281,0.00839233,
8206,-0.010376,0.00845337,
8208,-0.00915527,0.0085144,
8210,-0.00305176,0.00838013,
8212,-0.00671387,0.00841675,
8214,-0.00915527,0.00847168,
8216,-0.00793457,0.00852661,
8218,-0.000610352,0.00834961,
8220,-0.00305176,0.0083374,
8222,-0.0109863,0.00836182,
8224,-0.012207,0.00834961,
8226,0,0.00821533,
8228,-0.00976563,0.00828857,
8230,-0.0109863,0.00836792,
8232,-0.000610352,0.00834351,
8234,-0.0128174,0.00831909,
8236,-0.00976563,0.00834961,
8238,0.00976563,0.00841064,
8240,-0.00244141,0.00841064,
8242,-0.0158691,0.00856323,
8244,-0.00305176,0.00847168,
8246,-0.00183105,0.00826416,
8248,-0.00366211,0.00825806,
8250,0.00671387,0.00823975,
8252,-0.00305176,0.00819702,
8254,-0.010376,0.00826416,
8256,-0.00671387,0.00820923,
8258,0.00305176,0.00813599,
8260,0.0012207,0.00804443,
8262,-0.00793457,0.00805664,
8264,-0.0012207,0.00795288,
8266,0.000610352,0.00788574,
8268,0.0012207,0.00771484,
8270,-0.00610352,0.00772095,
8272,-0.00183105,0.00769043,
8274,0.00610352,0.00771484,
8276,0.000610352,0.00771484,
8278,-0.00854492,0.00772095,
8280,-0.00305176,0.00760498,
8282,-0.0128174,0.00771484,
8284,-0.012207,0.0078125,
8286,-0.00671387,0.00775146,
8288,-0.00854492,0.0078125,
8290,-0.00610352,0.00768433,
8292,-0.0146484,0.00773315,
8294,0.0195313,0.00792236,
8296,0.00305176,0.00780029,
8298,0.0012207,0.00759888,
8300,-0.012207,0.00766602,
8302,0.00183105,0.00765381,
8304,-0.00183105,0.00758057,
8306,0.00427246,0.00758667,
8308,-0.00915527,0.0076416,
8310,-0.00793457,0.00762939,
8312,-0.00793457,0.00762939,
8314,0.000610352,0.00755615,
8316,-0.00549316,0.00748901,
8318,0,0.00736694,
8320,-0.0115967,0.00748291,
8322,-0.00793457,0.00748901,
8324,0,0.00743408,
8326,-0.012207,0.00742798,
8328,0.00427246,0.0074707,
8330,0,0.00736694,
8332,-0.0134277,0.0074707,
8334,-0.00244141,0.00744629,
8336,0.000610352,0.00745239,
8338,0.0146484,0.00750122,
8340,-0.00305176,0.00744019,
8342,-0.0164795,0.00759277,
8344,0.00244141,0.00755615,
8346,-0.010376,0.00749512,
8348,0.00244141,0.00745239,
8350,-0.0115967,0.00733032,
8352,0.00244141,0.00721436,
8354,0.000610352,0.00704346,
8356,-0.0109863,0.00715332,
8358,-0.00366211,0.00699463,
8360,-0.012207,0.00686035,
8362,0.00549316,0.00673218,
8364,-0.00549316,0.00671387,
8366,-0.00610352,0.00661621,
