Dani_A_3-L01
Gráfico creado el:2026-06-03 16:54:34.617
Registro en:2026-06-03 16:56:59.567
2 mseg/muestras
2 canales
EMG
mV
EMG Integrado
mV-sec
milliSec,CH1,CH40,
,90266 samples,90266 samples,
0,0.00854492,8.54492E-05,
2,0.00671387,0.000152588,
4,-0.0183105,0.000335693,
6,-0.00793457,0.000415039,
8,-0.00183105,0.00043335,
10,-0.00305176,0.000463867,
12,-0.00976563,0.000561523,
14,-0.0140381,0.000701904,
16,-0.012207,0.000823975,
18,-0.0109863,0.000933838,
20,-0.00488281,0.000982666,
22,-0.0109863,0.00109253,
24,-0.00244141,0.00111694,
26,-0.00732422,0.00119019,
28,-0.00549316,0.00124512,
30,-0.00183105,0.00126343,
32,-0.00671387,0.00133057,
34,-0.010376,0.00143433,
36,-0.0115967,0.00155029,
38,-0.00854492,0.00163574,
40,-0.000610352,0.00164185,
42,-0.0128174,0.00177002,
44,-0.010376,0.00187378,
46,-0.010376,0.00197754,
48,-0.0128174,0.00210571,
50,-0.00427246,0.00214844,
52,-0.00732422,0.00222168,
54,-0.0115967,0.00233765,
56,-0.00793457,0.00241699,
58,-0.00793457,0.00249634,
60,-0.00610352,0.00255737,
62,-0.00732422,0.00263062,
64,-0.00854492,0.00271606,
66,-0.000610352,0.00272217,
68,0.00488281,0.002771,
70,-0.00976563,0.00286865,
72,-0.0158691,0.00302734,
74,-0.000610352,0.00303345,
76,-0.00732422,0.00310669,
78,-0.00549316,0.00316162,
80,-0.00671387,0.00322876,
82,-0.0152588,0.00338135,
84,-0.0115967,0.00349731,
86,-0.00671387,0.00356445,
88,-0.00610352,0.00362549,
90,-0.000610352,0.00363159,
92,-0.00427246,0.00367432,
94,-0.00244141,0.00369873,
96,-0.00854492,0.00378418,
98,-0.0109863,0.00389404,
100,0,0.00389404,
102,-0.00549316,0.00394897,
104,-0.00610352,0.00401001,
106,-0.00549316,0.00406494,
108,-0.00915527,0.00415649,
110,-0.00366211,0.00419312,
112,-0.00366211,0.00422974,
114,-0.0012207,0.00424194,
116,-0.00488281,0.00429077,
118,-0.010376,0.00439453,
120,-0.00488281,0.00444336,
122,-0.00915527,0.00453491,
124,-0.00305176,0.00456543,
126,-0.00427246,0.00460815,
128,-0.00976563,0.00470581,
130,-0.00671387,0.00477295,
132,-0.00549316,0.00482788,
134,-0.00183105,0.00484619,
136,0.00244141,0.00487061,
138,-0.00671387,0.00493774,
140,-0.0128174,0.00506592,
142,-0.0115967,0.00518188,
144,-0.00976563,0.00527954,
146,-0.00854492,0.00536499,
148,-0.0183105,0.0055481,
150,-0.010376,0.00565186,
152,-0.012207,0.00577393,
154,-0.0128174,0.0059021,
156,-0.00366211,0.00593872,
158,-0.010376,0.00604248,
160,-0.00915527,0.00613403,
162,-0.00305176,0.00616455,
164,-0.00488281,0.00621338,
166,-0.00610352,0.00627441,
168,-0.00732422,0.00634766,
170,-0.00427246,0.00639038,
172,-0.010376,0.00649414,
174,-0.00366211,0.00653076,
176,-0.00366211,0.00656738,
178,-0.00366211,0.006604,
180,-0.00427246,0.00664673,
182,-0.00793457,0.00672607,
184,-0.00366211,0.0067627,
186,-0.00366211,0.00679932,
188,-0.00854492,0.00688477,
190,-0.00305176,0.00691528,
192,-0.00854492,0.00700073,
194,-0.00549316,0.00705566,
196,-0.00427246,0.00709839,
198,-0.00488281,0.00714722,
200,-0.00244141,0.00708618,
202,-0.00549316,0.00707397,
204,-0.00915527,0.00698242,
206,-0.00244141,0.00692749,
208,-0.00610352,0.00697021,
210,-0.00183105,0.00695801,
212,-0.00366211,0.00689697,
214,-0.00366211,0.00679321,
216,-0.00427246,0.00671387,
218,-0.000610352,0.00661011,
220,0.00183105,0.00657959,
222,0.00427246,0.00651245,
224,0.00244141,0.00651245,
226,-0.0128174,0.00656738,
228,-0.0012207,0.00652466,
230,0.00183105,0.00652466,
232,-0.00854492,0.00654297,
234,-0.0164795,0.006604,
236,-0.00854492,0.00657349,
238,-0.0109863,0.0065979,
240,-0.00549316,0.00664673,
242,-0.012207,0.00664063,
244,-0.00610352,0.0065979,
246,-0.00305176,0.00652466,
248,-0.00976563,0.00649414,
250,0.00183105,0.00646973,
252,0,0.00639648,
254,-0.00549316,0.00633545,
256,0,0.0062561,
258,-0.00427246,0.00621948,
260,-0.0012207,0.00617065,
262,-0.00366211,0.00613403,
264,0.000610352,0.00605469,
266,-0.00366211,0.00608521,
268,-0.00793457,0.00611572,
270,-0.00244141,0.00604248,
272,-0.00549316,0.00593872,
274,0,0.00593262,
276,-0.00793457,0.00593872,
278,-0.00488281,0.00593262,
280,-0.00183105,0.00588379,
282,-0.00854492,0.00581665,
284,-0.00427246,0.00574341,
286,-0.00549316,0.0057312,
288,-0.00549316,0.0057251,
290,-0.00183105,0.0057373,
292,-0.010376,0.00579834,
294,-0.00366211,0.00581055,
296,-0.00488281,0.00577393,
298,-0.00183105,0.00568237,
300,0.00244141,0.00570679,
302,0.000610352,0.00565796,
304,0.00549316,0.00565186,
306,0.00915527,0.00568848,
308,-0.0146484,0.00574341,
310,-0.00183105,0.0057251,
312,0.00244141,0.00571289,
314,-0.00488281,0.00574951,
316,-0.00915527,0.00579224,
318,-0.0128174,0.00581665,
320,-0.00671387,0.00583496,
322,-0.00915527,0.00583496,
324,-0.00671387,0.00587158,
326,-0.00671387,0.005896,
328,-0.00305176,0.00582886,
330,-0.00183105,0.00578003,
332,-0.00915527,0.00581665,
334,-0.00549316,0.00585327,
336,-0.00793457,0.0059082,
338,-0.00793457,0.00592041,
340,-0.000610352,0.00579834,
342,-0.00671387,0.00574951,
344,-0.000610352,0.00565796,
346,-0.00366211,0.00560913,
348,-0.010376,0.00552979,
350,-0.00549316,0.00548096,
352,-0.00427246,0.00540161,
354,-0.00366211,0.00531006,
356,-0.00671387,0.00534058,
358,-0.012207,0.00535889,
360,-0.00488281,0.00531616,
362,-0.00915527,0.0053772,
364,-0.00549316,0.0053833,
366,-0.00488281,0.00537109,
368,-0.00671387,0.00536499,
370,-0.00793457,0.00540161,
372,-0.00427246,0.00534058,
374,0.00610352,0.00536499,
376,0.00549316,0.0053833,
378,0.00183105,0.00536499,
380,-0.0115967,0.00543823,
382,-0.00610352,0.00541992,
384,0.00427246,0.00542603,
386,-0.00427246,0.00543213,
388,-0.0183105,0.00552979,
390,-0.0115967,0.00561523,
392,-0.0140381,0.00567017,
394,-0.00610352,0.00567627,
396,-0.00305176,0.00566406,
398,-0.0158691,0.00577393,
400,-0.00305176,0.00578003,
402,0.0012207,0.0057373,
404,-0.00366211,0.00568237,
406,-0.00305176,0.00568848,
408,-0.0109863,0.0057373,
410,-0.00732422,0.00579224,
412,-0.00488281,0.00580444,
414,-0.00427246,0.00581055,
416,-0.00305176,0.00579834,
418,-0.00549316,0.00584717,
420,-0.00610352,0.00588989,
422,-0.00793457,0.00592651,
424,-0.00610352,0.00596313,
426,-0.00305176,0.00586548,
428,-0.00488281,0.0059021,
430,-0.00671387,0.00595093,
432,-0.012207,0.00598755,
434,-0.00732422,0.005896,
436,-0.00610352,0.00587158,
438,-0.00549316,0.00581665,
440,-0.00183105,0.00578003,
442,-0.00671387,0.0057251,
444,-0.010376,0.00576782,
446,-0.0109863,0.00584717,
448,-0.00549316,0.00580444,
450,-0.00183105,0.00580444,
452,-0.00305176,0.00583496,
454,0.0012207,0.00579224,
456,-0.00976563,0.00588989,
458,-0.0128174,0.00597534,
460,0,0.00596313,
462,-0.010376,0.00603027,
464,-0.00488281,0.006073,
466,-0.00427246,0.0060791,
468,-0.0115967,0.00611572,
470,-0.0152588,0.0062439,
472,-0.0140381,0.00632935,
474,-0.00244141,0.00635376,
476,-0.00671387,0.00634155,
478,-0.00305176,0.00632324,
480,-0.0012207,0.00631714,
482,-0.00366211,0.00626831,
484,-0.00671387,0.00629272,
486,-0.00732422,0.00631104,
488,-0.00305176,0.00628662,
490,-0.0012207,0.00628052,
492,-0.0109863,0.00628662,
494,-0.00915527,0.00634155,
496,-0.00671387,0.00635986,
498,-0.012207,0.00646362,
500,-0.00610352,0.00650024,
502,-0.00671387,0.00656128,
504,-0.00671387,0.00657349,
506,-0.00610352,0.00654297,
508,-0.00854492,0.00648193,
510,-0.00610352,0.00652466,
512,-0.00854492,0.00658569,
514,-0.00732422,0.00661011,
516,-0.00549316,0.00657349,
518,-0.00427246,0.00648804,
520,-0.00244141,0.00644531,
522,0.00305176,0.00638428,
524,-0.00915527,0.00640869,
526,-0.00610352,0.00640259,
528,0.000610352,0.00637817,
530,-0.00793457,0.00643921,
532,-0.010376,0.00645142,
534,-0.0128174,0.00652466,
536,-0.0128174,0.00657349,
538,-0.0115967,0.00661011,
540,-0.00671387,0.00667114,
542,-0.0134277,0.00673828,
544,-0.00610352,0.00679321,
546,-0.00366211,0.00679321,
548,-0.00671387,0.00675659,
550,-0.00427246,0.00674438,
552,-0.00305176,0.00673218,
554,-0.00305176,0.00672607,
556,-0.00427246,0.00670166,
558,-0.0109863,0.00668945,
560,-0.00488281,0.00668945,
562,-0.00732422,0.00667114,
564,-0.00793457,0.00669556,
566,-0.00549316,0.00670166,
568,-0.00427246,0.00667725,
570,-0.00793457,0.00667725,
572,-0.0109863,0.00674438,
574,-0.00976563,0.00678101,
576,-0.00549316,0.00678101,
578,-0.00610352,0.00682373,
580,-0.00732422,0.00678101,
582,-0.012207,0.00684204,
584,-0.00610352,0.00686035,
586,0.00793457,0.00689697,
588,0.00366211,0.00675049,
590,-0.010376,0.00673828,
592,-0.00427246,0.00664063,
594,0,0.00657959,
596,-0.00610352,0.00661011,
598,-0.012207,0.00657349,
600,-0.010376,0.00664673,
602,-0.010376,0.00673828,
604,-0.0152588,0.00685425,
606,-0.0134277,0.00695801,
608,-0.0115967,0.00696411,
610,-0.00732422,0.00696411,
612,-0.00793457,0.00699463,
614,-0.00549316,0.00700684,
616,-0.00549316,0.00703125,
618,-0.00671387,0.00704346,
620,-0.00427246,0.00702515,
622,-0.00671387,0.00701294,
624,-0.00671387,0.00701904,
626,-0.0012207,0.00700073,
628,-0.00488281,0.00700073,
630,-0.00244141,0.00695801,
632,-0.00610352,0.00689697,
634,-0.00366211,0.00686035,
636,-0.00671387,0.00686646,
638,-0.00732422,0.00688477,
640,0.0012207,0.00687866,
642,-0.00976563,0.00690918,
644,-0.00549316,0.00686035,
646,-0.00549316,0.00680542,
648,-0.00976563,0.00684814,
650,0.00244141,0.00685425,
652,0.0012207,0.00683594,
654,-0.00244141,0.00684814,
656,-0.00244141,0.0067749,
658,-0.010376,0.00675049,
660,0,0.00675049,
662,-0.00305176,0.00667725,
664,-0.00671387,0.00669556,
666,-0.00793457,0.00673218,
668,-0.00976563,0.00671387,
670,-0.00427246,0.006604,
672,-0.00915527,0.00655518,
674,0.000610352,0.00653687,
676,0.00244141,0.00649414,
678,0.00366211,0.00650024,
680,0.00427246,0.00653076,
682,-0.0152588,0.00664673,
684,-0.00610352,0.00664063,
686,-0.000610352,0.00657349,
688,-0.00549316,0.0065979,
690,-0.00976563,0.00668335,
692,-0.0152588,0.00672607,
694,-0.00976563,0.00673218,
696,-0.00488281,0.00671387,
698,-0.00793457,0.00667114,
700,-0.00305176,0.00664063,
702,-0.00488281,0.00662231,
704,-0.00427246,0.0065979,
706,-0.00427246,0.00657959,
708,0,0.00649414,
710,-0.00366211,0.00646973,
712,-0.010376,0.00648804,
714,-0.00732422,0.00648804,
716,-0.00366211,0.00646973,
718,-0.00671387,0.00649414,
720,-0.00671387,0.00653687,
722,-0.00854492,0.0065918,
724,-0.00366211,0.00653687,
726,-0.00305176,0.00650635,
728,0,0.00650024,
730,0.00793457,0.00650024,
732,-0.010376,0.00650024,
734,0,0.00637207,
736,0.0012207,0.0062561,
738,-0.00549316,0.00619507,
740,-0.00305176,0.00615845,
742,-0.0109863,0.00613403,
744,-0.00671387,0.00614014,
746,-0.00671387,0.00617065,
748,-0.0170898,0.00627441,
750,-0.000610352,0.00623779,
752,-0.00488281,0.0062561,
754,-0.00671387,0.00629272,
756,-0.00427246,0.00629272,
758,-0.0115967,0.00629883,
760,-0.00549316,0.00630493,
762,-0.010376,0.00633545,
764,-0.00854492,0.00634155,
766,-0.00488281,0.00633545,
768,-0.00671387,0.00635986,
770,-0.00793457,0.00635986,
772,-0.00732422,0.00632324,
774,-0.00305176,0.0062561,
776,-0.0012207,0.00621338,
778,-0.00244141,0.00617676,
780,0.00183105,0.00612183,
782,-0.00671387,0.00606689,
784,-0.00244141,0.00603027,
786,-0.00366211,0.00598755,
788,-0.00244141,0.00597534,
790,0,0.00587158,
792,-0.010376,0.00593262,
794,0.00366211,0.00596924,
796,-0.00183105,0.00592651,
798,-0.00488281,0.00585327,
800,0.00732422,0.00582275,
802,0.0012207,0.0057312,
804,-0.00488281,0.00562744,
806,0.00305176,0.00552368,
808,-0.000610352,0.00541382,
810,0.000610352,0.00534668,
812,-0.00549316,0.00532227,
814,-0.00183105,0.00528564,
816,0.00854492,0.00531616,
818,-0.0158691,0.00540771,
820,-0.00976563,0.00546265,
822,-0.00244141,0.00541992,
824,-0.000610352,0.00535889,
826,-0.00976563,0.00544434,
828,-0.00732422,0.00546875,
830,-0.00854492,0.00552979,
832,-0.00793457,0.0055481,
834,-0.00488281,0.0055603,
836,0.00183105,0.00551147,
838,-0.00549316,0.00549316,
840,-0.0115967,0.00559692,
842,-0.0109863,0.00560913,
844,-0.0012207,0.00556641,
846,-0.00671387,0.00557861,
848,-0.0128174,0.00560913,
850,-0.00488281,0.00563354,
852,-0.00854492,0.00570679,
854,-0.00793457,0.00576172,
856,-0.000610352,0.00574341,
858,-0.00671387,0.00570679,
860,-0.00488281,0.00575562,
862,-0.00610352,0.00578613,
864,-0.00610352,0.00578003,
866,-0.00427246,0.00574341,
868,-0.00854492,0.0057312,
870,-0.00671387,0.00575562,
872,-0.00915527,0.00575562,
874,-0.00366211,0.00578613,
876,-0.00427246,0.00580444,
878,-0.00549316,0.00582275,
880,-0.00183105,0.00579834,
882,-0.00366211,0.00568237,
884,-0.00488281,0.00567017,
886,-0.00305176,0.00569458,
888,0.00183105,0.00565796,
890,0.010376,0.00566406,
892,-0.00549316,0.00556641,
894,-0.0164795,0.00563354,
896,0.0012207,0.00559692,
898,-0.00427246,0.0055603,
900,-0.00610352,0.00559082,
902,-0.00793457,0.00562134,
904,-0.0109863,0.00568848,
906,-0.00610352,0.00570679,
908,-0.010376,0.00581055,
910,-0.00732422,0.00584717,
912,0.00305176,0.00577393,
914,-0.00610352,0.00576172,
916,-0.00854492,0.00581055,
918,-0.0012207,0.00575562,
920,0.00244141,0.00571289,
922,-0.00244141,0.00565186,
924,-0.00610352,0.00567627,
926,-0.0109863,0.00575562,
928,0,0.00575562,
930,-0.00183105,0.00569458,
932,-0.00915527,0.00568237,
934,-0.00732422,0.00575562,
936,-0.00976563,0.00584106,
938,-0.00610352,0.00584717,
940,-0.00183105,0.00583496,
942,-0.00549316,0.00578003,
944,-0.0012207,0.0057251,
946,0.00366211,0.00569458,
948,-0.010376,0.00562744,
950,-0.0012207,0.00563354,
952,0.00732422,0.00565796,
954,0.000610352,0.00559692,
956,-0.00366211,0.00559082,
958,-0.00915527,0.00556641,
960,0.00366211,0.0055481,
962,-0.00305176,0.00547485,
964,-0.0164795,0.0055542,
966,-0.00427246,0.0055481,
968,-0.00671387,0.0055481,
970,-0.00671387,0.00553589,
972,-0.0115967,0.00557861,
974,-0.0109863,0.00565796,
976,-0.00732422,0.00571899,
978,-0.00427246,0.0057373,
980,-0.00305176,0.00574951,
982,-0.00671387,0.00574951,
984,-0.00488281,0.00577393,
986,-0.00549316,0.00579224,
988,-0.00427246,0.00581055,
990,-0.00305176,0.00584106,
992,-0.00488281,0.00578613,
994,-0.00244141,0.00577393,
996,-0.00610352,0.00581665,
998,-0.00183105,0.00578613,
1000,0.00427246,0.00575562,
1002,0.0012207,0.00575562,
1004,-0.00549316,0.00576172,
1006,-0.00427246,0.00577393,
1008,0,0.00576782,
1010,0.0012207,0.00577393,
1012,-0.00854492,0.00580444,
1014,-0.00671387,0.00585327,
1016,-0.00305176,0.00579834,
1018,-0.00488281,0.00568848,
1020,-0.00305176,0.00562134,
1022,-0.00488281,0.00564575,
1024,-0.00305176,0.00567017,
1026,-0.00549316,0.00562744,
1028,0.00366211,0.00559082,
1030,0.00427246,0.0055481,
1032,-0.00671387,0.00553589,
1034,-0.000610352,0.00549316,
1036,0.00854492,0.0055603,
1038,-0.0012207,0.00551758,
1040,-0.00244141,0.00542603,
1042,-0.00793457,0.00539551,
1044,0,0.0053833,
1046,-0.00610352,0.0053772,
1048,-0.00854492,0.00533447,
1050,-0.00793457,0.00536499,
1052,-0.00976563,0.0053772,
1054,-0.00610352,0.00535889,
1056,-0.00488281,0.00540161,
1058,-0.0115967,0.00545044,
1060,-0.00244141,0.00542603,
1062,-0.00427246,0.00540771,
1064,-0.00610352,0.00540771,
1066,-0.00488281,0.00541382,
1068,-0.00732422,0.00540161,
1070,-0.00488281,0.0053833,
1072,-0.00549316,0.00534668,
1074,-0.00183105,0.00532837,
1076,-0.00366211,0.00532227,
1078,-0.00549316,0.00532227,
1080,-0.00244141,0.00532837,
1082,-0.00732422,0.00536499,
1084,-0.00671387,0.0053833,
1086,-0.00488281,0.00540161,
1088,-0.00549316,0.00543823,
1090,-0.00427246,0.0053772,
1092,-0.012207,0.00544434,
1094,0.00610352,0.00534058,
1096,-0.00549316,0.0053833,
1098,-0.0146484,0.00548706,
1100,-0.00305176,0.00545654,
1102,-0.00366211,0.00541382,
1104,-0.00549316,0.00535889,
1106,-0.00610352,0.00535889,
1108,-0.0134277,0.0053894,
1110,-0.00366211,0.00535278,
1112,-0.00366211,0.00535889,
1114,-0.0109863,0.00540771,
1116,-0.00366211,0.00535889,
1118,0.00183105,0.00536499,
1120,0.00244141,0.00536499,
1122,-0.000610352,0.00534668,
1124,-0.00854492,0.00537109,
1126,-0.00976563,0.00535889,
1128,-0.00793457,0.00543823,
1130,-0.00610352,0.00548096,
1132,-0.00854492,0.00547485,
1134,-0.0146484,0.0055481,
1136,-0.0140381,0.00559082,
1138,-0.0170898,0.00570068,
1140,-0.00366211,0.00571899,
1142,-0.00610352,0.0057251,
1144,-0.0012207,0.0057251,
1146,-0.00366211,0.0057251,
1148,-0.00549316,0.00567627,
1150,0.00244141,0.00568848,
1152,0,0.00561523,
1154,-0.00183105,0.00562744,
1156,-0.00244141,0.00561523,
1158,-0.00915527,0.00561523,
1160,0.0012207,0.00559082,
1162,-0.00366211,0.00559692,
1164,-0.00915527,0.00552368,
1166,-0.00305176,0.00551147,
1168,-0.00610352,0.00550537,
1170,-0.00549316,0.00549316,
1172,-0.00305176,0.00540771,
1174,0.000610352,0.00530396,
1176,-0.00793457,0.00531006,
1178,-0.00366211,0.00530396,
1180,0.00366211,0.00531006,
1182,0.00915527,0.00533447,
1184,-0.00366211,0.00532227,
1186,-0.0219727,0.00548706,
1188,-0.00366211,0.00548096,
1190,0.000610352,0.00545654,
1192,-0.010376,0.00551147,
1194,-0.012207,0.00560913,
1196,-0.0140381,0.00568848,
1198,-0.0146484,0.00581665,
1200,-0.00427246,0.00581665,
1202,-0.00854492,0.00588989,
1204,-0.00732422,0.0059082,
1206,0.000610352,0.00587158,
1208,-0.00915527,0.00596313,
1210,-0.00610352,0.00601196,
1212,-0.00549316,0.00598145,
1214,-0.00671387,0.00598145,
1216,-0.000610352,0.00595703,
1218,-0.00305176,0.00593872,
1220,-0.00427246,0.00595093,
1222,-0.0109863,0.00601196,
1224,0.00366211,0.00601807,
1226,-0.00305176,0.00599365,
1228,-0.00976563,0.00605469,
1230,-0.00366211,0.00604858,
1232,-0.00854492,0.00606689,
1234,-0.00488281,0.00610962,
1236,-0.00915527,0.00611572,
1238,-0.00427246,0.00614624,
1240,-0.00305176,0.00615234,
1242,0.00183105,0.00609131,
1244,-0.00366211,0.00612793,
1246,-0.00549316,0.00612183,
1248,0,0.00603638,
1250,-0.00427246,0.00599976,
1252,-0.00854492,0.00598755,
1254,-0.00793457,0.00600586,
1256,-0.00427246,0.00599976,
1258,-0.012207,0.00600586,
1260,-0.00366211,0.00601807,
1262,-0.00305176,0.00600586,
1264,-0.00610352,0.00600586,
1266,-0.00915527,0.00604858,
1268,-0.00305176,0.00600586,
1270,-0.00366211,0.00599365,
1272,-0.00854492,0.00602417,
1274,-0.012207,0.00612793,
1276,-0.00549316,0.00614624,
1278,-0.00793457,0.00617065,
1280,-0.00610352,0.00620728,
1282,-0.00915527,0.00622559,
1284,-0.00366211,0.00619507,
1286,-0.00366211,0.00618286,
1288,-0.00610352,0.00618896,
1290,-0.000610352,0.00615234,
1292,-0.00793457,0.00610962,
1294,-0.00183105,0.00606689,
1296,-0.00732422,0.00608521,
1298,-0.00366211,0.00597534,
1300,0.00183105,0.00596313,
1302,-0.00427246,0.00596924,
1304,0.00183105,0.00593262,
1306,0,0.00587158,
1308,-0.010376,0.00584106,
1310,-0.00305176,0.00583496,
1312,0.0012207,0.00581055,
1314,-0.00305176,0.0057312,
1316,-0.00793457,0.00577393,
1318,-0.0140381,0.005896,
1320,-0.00427246,0.00591431,
1322,-0.00854492,0.00599365,
1324,-0.00793457,0.00598755,
1326,-0.012207,0.00601196,
1328,-0.00671387,0.00599976,
1330,-0.00549316,0.00599365,
1332,-0.00488281,0.00595703,
1334,-0.00976563,0.0059082,
1336,-0.00305176,0.00579834,
1338,-0.0115967,0.00574341,
1340,-0.00183105,0.0057251,
1342,-0.00915527,0.00575562,
1344,-0.00244141,0.00576782,
1346,-0.0109863,0.00584106,
1348,-0.0115967,0.0059021,
1350,0.00183105,0.005896,
1352,0.00366211,0.00593262,
1354,0.00915527,0.00600586,
1356,0.00244141,0.00600586,
1358,-0.0158691,0.006073,
1360,0.000610352,0.00606689,
1362,-0.00244141,0.00605469,
1364,-0.00305176,0.00599365,
1366,-0.0146484,0.00610962,
1368,-0.0170898,0.00621948,
1370,-0.0109863,0.00627441,
1372,-0.0170898,0.00641479,
1374,-0.00488281,0.00645752,
1376,-0.00610352,0.00643921,
1378,-0.00366211,0.00643921,
1380,0.0012207,0.00641479,
1382,-0.00366211,0.00635986,
1384,-0.00732422,0.00639648,
1386,-0.00915527,0.00626831,
1388,-0.0012207,0.0062439,
1390,0.0012207,0.00625,
1392,-0.0115967,0.00626221,
1394,-0.010376,0.0062439,
1396,-0.00854492,0.00618896,
1398,-0.010376,0.00614624,
1400,-0.00854492,0.00618896,
1402,0.00915527,0.00619507,
1404,-0.00610352,0.00618286,
1406,-0.0109863,0.00628662,
1408,-0.00976563,0.00629272,
1410,0.00183105,0.00625,
1412,-0.00549316,0.00625,
1414,-0.00976563,0.00628052,
1416,-0.00488281,0.00632324,
1418,-0.00854492,0.00637817,
1420,-0.00793457,0.00641479,
1422,-0.00915527,0.00639648,
1424,-0.00671387,0.006427,
1426,-0.00488281,0.00644531,
1428,-0.00488281,0.00639648,
1430,-0.00305176,0.00639038,
1432,-0.00915527,0.00639648,
1434,-0.00610352,0.00640869,
1436,-0.00366211,0.00635376,
1438,-0.00244141,0.00633545,
1440,0.00976563,0.00640259,
1442,-0.00610352,0.00644531,
1444,-0.0189209,0.0065979,
1446,0.000610352,0.00654907,
1448,-0.00488281,0.0065979,
1450,-0.00854492,0.00664063,
1452,-0.0146484,0.00670166,
1454,-0.0177002,0.00679932,
1456,-0.0115967,0.00687256,
1458,-0.0170898,0.00692139,
1460,-0.00610352,0.0069458,
1462,-0.0109863,0.00702515,
1464,-0.00976563,0.00706177,
1466,0.00244141,0.00699463,
1468,-0.00427246,0.00700684,
1470,-0.00488281,0.00701904,
1472,-0.00549316,0.00698853,
1474,-0.0012207,0.00687866,
1476,-0.00305176,0.00685425,
1478,-0.00671387,0.00684204,
1480,-0.00610352,0.00684204,
1482,-0.00854492,0.00683594,
1484,-0.00366211,0.00683594,
1486,-0.00732422,0.00687256,
1488,-0.0128174,0.0069397,
1490,-0.00183105,0.0069519,
1492,-0.012207,0.00699463,
1494,-0.00305176,0.00700684,
1496,0.00244141,0.00695801,
1498,-0.00976563,0.00701904,
1500,-0.00549316,0.00705566,
1502,-0.00854492,0.00709839,
1504,-0.00976563,0.00717773,
1506,-0.00305176,0.00720825,
1508,-0.0115967,0.00722046,
1510,-0.00854492,0.00727539,
1512,-0.00854492,0.00734863,
1514,-0.0109863,0.00742798,
1516,-0.00793457,0.00742798,
1518,-0.00671387,0.00735474,
1520,-0.00671387,0.00737915,
1522,-0.00732422,0.00736694,
1524,-0.00305176,0.00731812,
1526,-0.0012207,0.00720825,
1528,0.00793457,0.00722046,
1530,-0.00366211,0.00720215,
1532,-0.0115967,0.00726929,
1534,-0.0012207,0.00718384,
1536,0.00610352,0.00721436,
1538,-0.00915527,0.00718994,
1540,-0.0109863,0.00728149,
1542,-0.00976563,0.0072876,
1544,-0.00793457,0.00734253,
1546,-0.00854492,0.00731812,
1548,-0.00854492,0.0072876,
1550,-0.00488281,0.00731812,
1552,0.0012207,0.0072937,
1554,-0.00854492,0.0072876,
1556,-0.00427246,0.00730591,
1558,-0.00610352,0.00720825,
1560,-0.00244141,0.00722656,
1562,-0.00366211,0.00723877,
1564,-0.00671387,0.00727539,
1566,-0.00244141,0.00715332,
1568,-0.00366211,0.00701904,
1570,-0.00488281,0.00695801,
1572,-0.00244141,0.00681152,
1574,-0.00610352,0.00682373,
1576,-0.00488281,0.00681152,
1578,-0.00427246,0.00681763,
1580,-0.00305176,0.00683594,
1582,-0.00854492,0.00688477,
1584,-0.00793457,0.00689087,
1586,-0.00732422,0.00687256,
1588,-0.00976563,0.00695801,
1590,-0.000610352,0.0069519,
1592,-0.00183105,0.00685425,
1594,0.00305176,0.00678101,
1596,-0.00244141,0.00671997,
1598,-0.0152588,0.0067688,
1600,0.00183105,0.00670166,
1602,0.0012207,0.00662231,
1604,-0.0012207,0.00657349,
1606,0.000610352,0.00646973,
1608,-0.0164795,0.00653687,
1610,-0.00671387,0.00658569,
1612,-0.0012207,0.00654297,
1614,-0.00854492,0.00653076,
1616,-0.00610352,0.00654297,
1618,-0.010376,0.00656128,
1620,-0.00427246,0.00652466,
1622,-0.00549316,0.00648804,
1624,-0.00305176,0.00645142,
1626,-0.00427246,0.00644531,
1628,-0.010376,0.00650024,
1630,-0.00305176,0.00650024,
1632,-0.00549316,0.00646362,
1634,-0.00549316,0.00645752,
1636,-0.00793457,0.00650024,
1638,-0.00915527,0.00656738,
1640,0.00183105,0.00648804,
1642,-0.00427246,0.00646973,
1644,-0.00305176,0.00631104,
1646,-0.00732422,0.00637817,
1648,-0.000610352,0.00633545,
1650,0.00427246,0.00629272,
1652,-0.00793457,0.00622559,
1654,-0.00366211,0.00608521,
1656,-0.00915527,0.00606079,
1658,-0.00427246,0.00593262,
1660,-0.00366211,0.0059082,
1662,-0.0012207,0.00581055,
1664,-0.0134277,0.00584717,
1666,-0.00549316,0.00587769,
1668,-0.00305176,0.00586548,
1670,-0.00488281,0.00586548,
1672,-0.00854492,0.005896,
1674,-0.00488281,0.00593262,
1676,-0.00427246,0.00594482,
1678,-0.00732422,0.00595093,
1680,-0.00732422,0.00596313,
1682,-0.00183105,0.005896,
1684,-0.00732422,0.00593262,
1686,-0.00793457,0.00593872,
1688,-0.00366211,0.00584717,
1690,-0.00549316,0.00588379,
1692,-0.0140381,0.0059021,
1694,-0.00610352,0.00593262,
1696,-0.00488281,0.00595703,
1698,-0.00793457,0.00593872,
1700,-0.00427246,0.00592651,
1702,-0.00793457,0.00592041,
1704,-0.00610352,0.00588379,
1706,-0.00305176,0.00588379,
1708,-0.00793457,0.00584717,
1710,-0.00305176,0.00579224,
1712,-0.00549316,0.00576172,
1714,-0.00732422,0.0057251,
1716,-0.00549316,0.00570068,
1718,-0.00610352,0.00569458,
1720,-0.00610352,0.00568848,
1722,-0.00427246,0.00565796,
1724,-0.00671387,0.00569458,
1726,-0.00549316,0.0057373,
1728,-0.00732422,0.0057312,
1730,0.0012207,0.00570679,
1732,-0.00976563,0.00568848,
1734,-0.0158691,0.00583496,
1736,-0.00366211,0.00581055,
1738,-0.0140381,0.00585938,
1740,-0.00427246,0.00579224,
1742,-0.00671387,0.00576172,
1744,-0.0012207,0.00569458,
1746,-0.010376,0.00571289,
1748,-0.0158691,0.00578613,
1750,-0.000610352,0.00574341,
1752,-0.00366211,0.00576782,
1754,-0.00854492,0.00576782,
1756,-0.00305176,0.00575562,
1758,-0.0177002,0.00587158,
1760,-0.010376,0.00595093,
1762,-0.010376,0.00601807,
1764,-0.00183105,0.00596924,
1766,-0.00488281,0.00599365,
1768,-0.0140381,0.00609741,
1770,-0.00671387,0.00611572,
1772,-0.00305176,0.00612183,
1774,-0.00915527,0.00615234,
1776,-0.0109863,0.00621338,
1778,-0.00793457,0.00625,
1780,-0.00610352,0.00628052,
1782,-0.00793457,0.00627441,
1784,-0.00732422,0.00626831,
1786,-0.00915527,0.00628662,
1788,-0.0140381,0.00632935,
1790,0.00427246,0.00636597,
1792,-0.00244141,0.00637207,
1794,-0.0140381,0.00648193,
1796,-0.00976563,0.00655518,
1798,-0.00244141,0.006427,
1800,-0.00244141,0.00643311,
1802,-0.00915527,0.00651245,
1804,-0.0109863,0.00661011,
1806,-0.00488281,0.00665283,
1808,-0.00915527,0.00657959,
1810,-0.00732422,0.00658569,
1812,-0.00549316,0.00662842,
1814,-0.00976563,0.00664063,
1816,-0.00366211,0.00661621,
1818,-0.00732422,0.00658569,
1820,-0.00549316,0.0065979,
1822,-0.00427246,0.00658569,
1824,-0.000610352,0.00656128,
1826,-0.00305176,0.00654907,
1828,-0.00183105,0.00646362,
1830,-0.00732422,0.00650635,
1832,-0.00244141,0.00647583,
1834,-0.00488281,0.00646973,
1836,-0.00610352,0.00645142,
1838,-0.0115967,0.00647583,
1840,-0.00427246,0.00650024,
1842,0.00244141,0.00648193,
1844,0.010376,0.00655518,
1846,-0.00549316,0.00653687,
1848,-0.0183105,0.00671387,
1850,0.00610352,0.00673218,
1852,0.00488281,0.00670166,
1854,-0.00976563,0.0067627,
1856,-0.0109863,0.00678101,
1858,-0.00854492,0.00682373,
1860,-0.0109863,0.00689697,
1862,-0.0115967,0.00700073,
1864,-0.0109863,0.00697632,
1866,-0.00427246,0.00696411,
1868,-0.00183105,0.0069519,
1870,-0.00183105,0.00692139,
1872,-0.00488281,0.00688477,
1874,-0.00244141,0.00686035,
1876,-0.00549316,0.00687256,
1878,-0.00915527,0.00689087,
1880,0.000610352,0.00682373,
1882,-0.00854492,0.00689087,
1884,-0.0115967,0.00693359,
1886,-0.00732422,0.00692749,
1888,-0.0109863,0.00700073,
1890,-0.00488281,0.00699463,
1892,-0.00671387,0.00692139,
1894,-0.00732422,0.00693359,
1896,-0.00427246,0.00692749,
1898,-0.00915527,0.0069397,
1900,-0.00305176,0.00692749,
1902,-0.00732422,0.00692139,
1904,-0.00732422,0.00693359,
1906,-0.00366211,0.0069397,
1908,-0.0109863,0.00697021,
1910,-0.00488281,0.00698853,
1912,-0.00610352,0.00699463,
1914,-0.00427246,0.00696411,
1916,0.00366211,0.0069458,
1918,-0.000610352,0.00689087,
1920,-0.00671387,0.00689697,
1922,-0.00732422,0.00692749,
1924,-0.00305176,0.00689087,
1926,-0.00671387,0.00690308,
1928,-0.00305176,0.00686035,
1930,-0.00671387,0.00691528,
1932,-0.00732422,0.00689087,
1934,-0.00549316,0.00678711,
1936,-0.0012207,0.0067627,
1938,0.00671387,0.00668945,
1940,-0.000610352,0.00665283,
1942,-0.00793457,0.00666504,
1944,-0.000610352,0.00665894,
1946,-0.0012207,0.00656738,
1948,-0.012207,0.00653076,
1950,-0.0134277,0.00665894,
1952,-0.00976563,0.00671997,
1954,-0.0146484,0.00678101,
1956,-0.00244141,0.0067749,
1958,-0.00549316,0.00665283,
1960,0.000610352,0.00655518,
1962,-0.00915527,0.00654297,
1964,-0.00427246,0.00656738,
1966,0.00427246,0.00656128,
1968,-0.00610352,0.00648193,
1970,-0.00183105,0.00643311,
1972,-0.00976563,0.00650024,
1974,-0.00732422,0.00648193,
1976,-0.00671387,0.00643921,
1978,-0.00549316,0.00641479,
1980,-0.00305176,0.00638428,
1982,-0.00671387,0.00637207,
1984,-0.00488281,0.00634766,
1986,-0.00671387,0.00632324,
1988,-0.00976563,0.00628052,
1990,0.00244141,0.00626221,
1992,-0.00488281,0.00628662,
1994,-0.00549316,0.00620117,
1996,0.000610352,0.00610962,
1998,-0.00610352,0.00614624,
2000,0.000610352,0.00612793,
2002,-0.0012207,0.00604858,
2004,-0.00671387,0.00600586,
2006,0.00366211,0.00599365,
2008,-0.00854492,0.00598755,
2010,-0.00671387,0.00598145,
2012,-0.00854492,0.00601196,
2014,-0.00427246,0.00595703,
2016,0.000610352,0.00592651,
2018,-0.00366211,0.00588989,
2020,-0.00427246,0.00587769,
2022,-0.00793457,0.00591431,
2024,-0.00366211,0.00594482,
2026,-0.0012207,0.00592651,
2028,-0.00854492,0.00599365,
2030,-0.00610352,0.00598145,
2032,-0.0128174,0.00608521,
2034,-0.0134277,0.00617065,
2036,-0.00610352,0.00617065,
2038,-0.0158691,0.00621338,
2040,-0.00549316,0.00622559,
2042,-0.00488281,0.00625,
2044,-0.00671387,0.00621338,
2046,-0.00427246,0.00620117,
2048,0.00183105,0.00603638,
2050,0.00183105,0.00599365,
2052,-0.0170898,0.00611572,
2054,-0.00549316,0.006073,
2056,0.00244141,0.00598755,
2058,-0.00732422,0.00597534,
2060,-0.010376,0.00596924,
2062,-0.00854492,0.00593872,
2064,-0.0115967,0.00594482,
2066,-0.00549316,0.00595703,
2068,-0.00366211,0.00597534,
2070,0.00183105,0.00597534,
2072,-0.00244141,0.00595093,
2074,-0.00305176,0.00595703,
2076,-0.012207,0.00602417,
2078,-0.00976563,0.00603027,
2080,-0.00244141,0.00604858,
2082,-0.00427246,0.00600586,
2084,-0.0109863,0.00599976,
2086,-0.0164795,0.00609131,
2088,-0.0115967,0.00609741,
2090,-0.00366211,0.00608521,
2092,-0.00976563,0.00611572,
2094,-0.00549316,0.00609741,
2096,-0.00549316,0.00610962,
2098,-0.0128174,0.00614624,
2100,-0.00488281,0.00616455,
2102,-0.0012207,0.00610352,
2104,-0.00793457,0.00610962,
2106,0,0.006073,
2108,-0.00915527,0.00605469,
2110,-0.012207,0.00612793,
2112,-0.00244141,0.00609131,
2114,-0.010376,0.00615234,
2116,-0.00976563,0.00621338,
2118,-0.00854492,0.00629272,
2120,-0.00915527,0.00631714,
2122,-0.010376,0.00634766,
2124,-0.0109863,0.006427,
2126,-0.00427246,0.00640259,
2128,-0.00610352,0.00643311,
2130,0.00915527,0.00645752,
2132,-0.00976563,0.00648193,
2134,-0.0183105,0.00661011,
2136,-0.00305176,0.00662842,
2138,-0.00366211,0.0065979,
2140,-0.00549316,0.00664673,
2142,-0.0146484,0.00671387,
2144,-0.0109863,0.00681763,
2146,0.0012207,0.00681763,
2148,-0.00793457,0.0067749,
2150,-0.00305176,0.00667114,
2152,-0.00915527,0.00666504,
2154,-0.00854492,0.006604,
2156,-0.0012207,0.0065918,
2158,-0.00610352,0.0065979,
2160,-0.00793457,0.00667114,
2162,-0.00671387,0.00664673,
2164,-0.00793457,0.00668335,
2166,-0.00427246,0.00668335,
2168,-0.00549316,0.00667725,
2170,-0.00488281,0.00670776,
2172,-0.00427246,0.00665283,
2174,-0.00793457,0.00665894,
2176,-0.00549316,0.00664673,
2178,-0.00976563,0.00668945,
2180,-0.00671387,0.00672607,
2182,-0.00793457,0.00673828,
2184,-0.00305176,0.00671997,
2186,-0.00244141,0.00667725,
2188,-0.00915527,0.00667114,
2190,-0.00305176,0.00667725,
2192,-0.00549316,0.00668335,
2194,-0.00427246,0.00667114,
2196,-0.00244141,0.00668945,
2198,-0.00793457,0.00670776,
2200,-0.00366211,0.00673828,
2202,-0.00610352,0.00678711,
2204,-0.00671387,0.00678711,
2206,-0.00488281,0.00679932,
2208,-0.00793457,0.00679321,
2210,-0.00854492,0.00681152,
2212,-0.00305176,0.00675659,
2214,-0.00732422,0.00678711,
2216,-0.00488281,0.00682983,
2218,-0.00488281,0.00684204,
2220,-0.00427246,0.00684204,
2222,-0.00488281,0.00681152,
2224,-0.000610352,0.00678101,
2226,0.00549316,0.00682373,
2228,0.00549316,0.00679321,
2230,-0.00976563,0.00682983,
2232,-0.010376,0.00680542,
2234,0,0.00667114,
2236,-0.00305176,0.00664063,
2238,-0.0128174,0.00661011,
2240,-0.00854492,0.00664063,
2242,-0.0152588,0.00674438,
2244,-0.0115967,0.00679321,
2246,-0.010376,0.00685425,
2248,-0.00976563,0.00693359,
2250,-0.00671387,0.00698242,
2252,-0.0115967,0.00692749,
2254,-0.00732422,0.0069458,
2256,0,0.00692139,
2258,-0.00976563,0.0069458,
2260,-0.00427246,0.00688477,
2262,-0.00732422,0.00687256,
2264,-0.00854492,0.00684204,
2266,-0.00366211,0.00682373,
2268,-0.00610352,0.00684814,
2270,-0.00366211,0.00686646,
2272,-0.00610352,0.00690308,
2274,-0.010376,0.00697632,
2276,-0.00366211,0.00689087,
2278,-0.00427246,0.00683594,
2280,-0.00244141,0.00683594,
2282,-0.00732422,0.00686646,
2284,0.000610352,0.0067627,
2286,-0.00732422,0.00667114,
2288,-0.0115967,0.00667114,
2290,0.00183105,0.00665283,
2292,-0.0012207,0.00656738,
2294,0.00366211,0.00654907,
2296,-0.00915527,0.00658569,
2298,-0.0189209,0.00664673,
2300,0.0012207,0.00661011,
2302,-0.00488281,0.00664673,
2304,-0.0140381,0.00670776,
2306,-0.00671387,0.0067749,
2308,-0.0115967,0.00679932,
2310,-0.0195313,0.00687256,
2312,-0.0146484,0.00699463,
2314,-0.00915527,0.00698242,
2316,-0.00976563,0.00698242,
2318,-0.0109863,0.00700684,
2320,-0.010376,0.00701904,
2322,-0.010376,0.00701904,
2324,-0.00854492,0.00699463,
2326,-0.00610352,0.00701294,
2328,-0.00732422,0.00702515,
2330,-0.00488281,0.00698242,
2332,-0.00732422,0.00695801,
2334,-0.00793457,0.00685425,
2336,-0.00793457,0.00690308,
2338,-0.00366211,0.00690308,
2340,-0.00488281,0.00689697,
2342,-0.00732422,0.00682373,
2344,-0.00305176,0.00674438,
2346,0,0.00673218,
2348,-0.00915527,0.00674438,
2350,-0.00793457,0.00679321,
2352,-0.00488281,0.00675049,
2354,-0.00671387,0.00673218,
2356,-0.00244141,0.00674438,
2358,-0.010376,0.00678711,
2360,-0.00915527,0.00679932,
2362,-0.00671387,0.00679932,
2364,-0.00854492,0.00680542,
2366,-0.0012207,0.0067749,
2368,-0.00732422,0.00679321,
2370,-0.00305176,0.0067749,
2372,-0.00976563,0.00682983,
2374,-0.00366211,0.00678711,
2376,-0.00488281,0.00678101,
2378,-0.00488281,0.00673218,
2380,-0.0012207,0.00667725,
2382,-0.00732422,0.00667114,
2384,0.000610352,0.00664673,
2386,-0.00366211,0.00665894,
2388,-0.00915527,0.00665894,
2390,0.0012207,0.00664063,
2392,0,0.00658569,
2394,0,0.00654297,
2396,-0.010376,0.00662231,
2398,-0.0170898,0.00671387,
2400,-0.00366211,0.00671387,
2402,-0.0109863,0.0067627,
2404,-0.010376,0.00679932,
2406,-0.00671387,0.00681763,
2408,-0.0152588,0.00689087,
2410,-0.0115967,0.00692139,
2412,-0.00976563,0.00698853,
2414,-0.00854492,0.00700073,
2416,-0.00183105,0.00697021,
2418,-0.00610352,0.00698242,
2420,-0.00244141,0.00696411,
2422,-0.0134277,0.00704956,
2424,-0.00366211,0.00708008,
2426,-0.00427246,0.00706787,
2428,-0.00976563,0.0071106,
2430,-0.000610352,0.00701904,
2432,-0.010376,0.00701904,
2434,-0.00793457,0.00709839,
2436,-0.00183105,0.00708618,
2438,-0.0109863,0.00706787,
2440,-0.00549316,0.00703735,
2442,-0.00915527,0.00697632,
2444,-0.00305176,0.00689087,
2446,-0.00488281,0.00683594,
2448,-0.00915527,0.00682983,
2450,-0.00976563,0.00686035,
2452,-0.00366211,0.00678101,
2454,0.00183105,0.00672607,
2456,-0.00244141,0.00675049,
2458,-0.0152588,0.00680542,
2460,-0.00488281,0.00681152,
2462,-0.00183105,0.00675659,
2464,-0.00610352,0.00673218,
2466,-0.00549316,0.00675049,
2468,-0.00671387,0.00675659,
2470,-0.00366211,0.00675659,
2472,0.000610352,0.00670166,
2474,-0.00305176,0.00662842,
2476,-0.0128174,0.00671997,
2478,-0.00305176,0.00670776,
2480,0.000610352,0.00668945,
2482,-0.00610352,0.00667725,
2484,-0.0109863,0.00678101,
2486,-0.0134277,0.00684204,
2488,-0.0134277,0.00686035,
2490,0,0.00684204,
2492,-0.00427246,0.00687256,
2494,-0.00549316,0.00689087,
2496,-0.00488281,0.00684814,
2498,-0.00732422,0.00673218,
2500,-0.000610352,0.00672607,
2502,-0.00305176,0.00670776,
2504,-0.00305176,0.0065979,
2506,-0.0012207,0.00654297,
2508,-0.00549316,0.00648193,
2510,0.00183105,0.00630493,
2512,-0.00549316,0.00621338,
2514,-0.00366211,0.00615845,
2516,0,0.00606079,
2518,-0.00732422,0.00602417,
2520,0.0012207,0.00593262,
2522,-0.00793457,0.0059082,
2524,-0.00854492,0.0059082,
2526,-0.00976563,0.00594482,
2528,-0.00793457,0.00595093,
2530,-0.00244141,0.00592651,
2532,-0.00488281,0.0059021,
2534,-0.00671387,0.00588989,
2536,-0.00427246,0.00585327,
2538,-0.00610352,0.00587769,
2540,0.00427246,0.00587158,
2542,0,0.00579834,
2544,-0.00305176,0.00579834,
2546,0.00244141,0.00582275,
2548,-0.000610352,0.0057373,
2550,0.0109863,0.00576782,
2552,-0.00183105,0.0057373,
2554,-0.00854492,0.00575562,
2556,0.00671387,0.00579834,
2558,-0.00488281,0.00574341,
2560,-0.00244141,0.00567627,
2562,-0.00671387,0.00567627,
2564,-0.0140381,0.0057312,
2566,-0.00244141,0.00574341,
2568,-0.00183105,0.00568848,
2570,-0.00610352,0.00571899,
2572,-0.00671387,0.00568848,
2574,-0.00793457,0.0057312,
2576,-0.0012207,0.00569458,
2578,-0.00427246,0.00568848,
2580,-0.0109863,0.00578613,
2582,-0.00610352,0.00577393,
2584,-0.00366211,0.00580444,
2586,-0.00732422,0.00584106,
2588,-0.012207,0.00587158,
2590,-0.0012207,0.00587158,
2592,-0.00610352,0.00593262,
2594,-0.00244141,0.00595703,
2596,0.00183105,0.00587158,
2598,-0.0109863,0.00581055,
2600,-0.00427246,0.00581665,
2602,-0.00305176,0.0057373,
2604,-0.00305176,0.00566406,
2606,0.00366211,0.00563354,
2608,-0.00305176,0.00551147,
2610,-0.00488281,0.00544434,
2612,-0.0146484,0.00549316,
2614,0.000610352,0.00541382,
2616,0.00976563,0.00549316,
2618,-0.0109863,0.00554199,
2620,-0.00793457,0.00559692,
2622,-0.00366211,0.00549927,
2624,-0.00671387,0.00552979,
2626,-0.00366211,0.00552368,
2628,-0.00488281,0.00547485,
2630,0.000610352,0.00547485,
2632,-0.00244141,0.00539551,
2634,-0.00671387,0.0053833,
2636,-0.00244141,0.0053894,
2638,-0.00610352,0.00534058,
2640,-0.00183105,0.00530396,
2642,-0.00244141,0.00523682,
2644,0,0.0052063,
2646,-0.00488281,0.0052063,
2648,-0.0195313,0.00531006,
2650,-0.00427246,0.00525513,
2652,-0.000610352,0.00522461,
2654,-0.012207,0.00532837,
2656,-0.010376,0.00540771,
2658,-0.0128174,0.0053833,
2660,-0.00793457,0.00541382,
2662,-0.00854492,0.00548096,
2664,-0.00793457,0.00549927,
2666,0.0012207,0.00545654,
2668,0.000610352,0.00539551,
2670,0,0.00535889,
2672,-0.00915527,0.00544434,
2674,-0.00915527,0.00550537,
2676,0.00183105,0.00539551,
2678,-0.00305176,0.00539551,
2680,0,0.0053894,
2682,-0.00732422,0.00540161,
2684,-0.0109863,0.00540161,
2686,-0.0195313,0.00546265,
2688,-0.000610352,0.00533447,
2690,-0.00305176,0.00536499,
2692,-0.0164795,0.00548706,
2694,-0.00976563,0.00552979,
2696,-0.00671387,0.0055481,
2698,-0.0109863,0.00558472,
2700,-0.0109863,0.00568848,
2702,-0.00793457,0.0057373,
2704,-0.00549316,0.00576172,
2706,-0.00671387,0.00581665,
2708,-0.012207,0.00588379,
2710,-0.00976563,0.00596313,
2712,-0.00793457,0.00598755,
2714,0.0012207,0.00596313,
2716,-0.00183105,0.00598145,
2718,-0.0244141,0.00615234,
2720,0.00183105,0.00615845,
2722,-0.00183105,0.00609741,
2724,-0.00671387,0.0060791,
2726,-0.00671387,0.00604858,
2728,-0.010376,0.006073,
2730,-0.00793457,0.00612793,
2732,-0.00976563,0.00617676,
2734,-0.00793457,0.00618896,
2736,-0.00976563,0.0062439,
2738,-0.010376,0.00628662,
2740,-0.0012207,0.0062561,
2742,-0.00305176,0.00628662,
2744,0.00610352,0.00631714,
2746,-0.00244141,0.00631714,
2748,-0.0201416,0.00651245,
2750,0.00427246,0.00644531,
2752,0.00610352,0.00648804,
2754,-0.0134277,0.00653687,
2756,-0.0109863,0.00657959,
2758,-0.010376,0.00663452,
2760,-0.00305176,0.00664063,
2762,-0.0109863,0.00668335,
2764,-0.0134277,0.00667725,
2766,-0.00488281,0.00670166,
2768,-0.00549316,0.00673828,
2770,-0.00305176,0.00670776,
2772,-0.00244141,0.00666504,
2774,-0.00366211,0.00662231,
2776,-0.0170898,0.00678101,
2778,-0.010376,0.00684204,
2780,0.00183105,0.00675049,
2782,-0.00732422,0.0067627,
2784,-0.00976563,0.00682373,
2786,-0.00915527,0.00684204,
2788,-0.010376,0.00682373,
2790,-0.00732422,0.00688477,
2792,-0.00854492,0.00690918,
2794,0.0012207,0.00689697,
2796,-0.00305176,0.00690918,
2798,-0.00915527,0.00689087,
2800,-0.00305176,0.00687866,
2802,-0.00305176,0.00687866,
2804,-0.00549316,0.00690308,
2806,-0.00610352,0.00692749,
2808,-0.00854492,0.00698242,
2810,-0.00793457,0.00701294,
2812,-0.00671387,0.00693359,
2814,-0.00549316,0.00698242,
2816,0.0012207,0.00689697,
2818,-0.00610352,0.00684814,
2820,-0.00793457,0.00684814,
2822,-0.00610352,0.00687256,
2824,-0.00671387,0.00687256,
2826,-0.00915527,0.00692749,
2828,-0.00793457,0.00695801,
2830,-0.012207,0.00707397,
2832,-0.0140381,0.00718994,
2834,-0.010376,0.00722656,
2836,-0.00671387,0.00726929,
2838,-0.00183105,0.00722656,
2840,-0.0012207,0.00722046,
2842,-0.0158691,0.00735474,
2844,-0.00305176,0.00738525,
2846,-0.00915527,0.00742798,
2848,-0.0115967,0.00734863,
2850,-0.00854492,0.00739136,
2852,-0.0189209,0.00757446,
2854,-0.0158691,0.00761108,
2856,-0.00915527,0.00759888,
2858,-0.0219727,0.00769043,
2860,-0.00549316,0.00766602,
2862,-0.00488281,0.00762939,
2864,-0.0109863,0.00765991,
2866,-0.00183105,0.00766602,
2868,-0.00366211,0.00769653,
2870,-0.00610352,0.00775757,
2872,-0.00305176,0.00769653,
2874,-0.00732422,0.00767822,
2876,-0.00427246,0.00770264,
2878,-0.00976563,0.00776978,
2880,-0.010376,0.00787354,
2882,-0.00549316,0.00785522,
2884,-0.00549316,0.00780029,
2886,0.00183105,0.00762329,
2888,-0.0134277,0.00775146,
2890,-0.00488281,0.00776978,
2892,0.00366211,0.0076416,
2894,0,0.00754395,
2896,-0.0146484,0.00762329,
2898,-0.0115967,0.00762939,
2900,-0.00183105,0.00753784,
2902,-0.0164795,0.00762329,
2904,-0.0164795,0.00773315,
2906,-0.00732422,0.00773926,
2908,-0.0164795,0.00778198,
2910,-0.012207,0.0078064,
2912,-0.00854492,0.0078125,
2914,-0.00427246,0.00784302,
2916,-0.00610352,0.00788574,
2918,-0.0012207,0.00765381,
2920,-0.00976563,0.00773315,
2922,0,0.00771484,
2924,-0.00488281,0.00769653,
2926,-0.00610352,0.00769043,
2928,-0.00915527,0.00767822,
2930,-0.00793457,0.00767822,
2932,-0.00610352,0.0076416,
2934,-0.0128174,0.00769043,
2936,-0.00610352,0.00765381,
2938,-0.00915527,0.0076416,
2940,-0.00610352,0.00769043,
2942,-0.00915527,0.00775146,
2944,-0.00488281,0.00773926,
2946,-0.00366211,0.00775146,
2948,-0.010376,0.00765381,
2950,-0.00488281,0.00765991,
2952,-0.00915527,0.00769043,
2954,-0.00793457,0.0076355,
2956,0.00671387,0.00759277,
2958,0.0109863,0.00759888,
2960,-0.0012207,0.00758057,
2962,-0.0219727,0.00769043,
2964,0.00549316,0.00761108,
2966,-0.00244141,0.00758667,
2968,-0.0140381,0.00767212,
2970,-0.00976563,0.00773926,
2972,-0.0177002,0.00789185,
2974,-0.0183105,0.00803833,
2976,-0.0152588,0.00802002,
2978,-0.0115967,0.00803223,
2980,-0.00854492,0.00809937,
2982,-0.00854492,0.00811157,
2984,-0.00732422,0.00808716,
2986,0.00305176,0.00802612,
2988,-0.010376,0.00802612,
2990,-0.00549316,0.00800781,
2992,-0.00610352,0.0079834,
2994,-0.00671387,0.00803833,
2996,-0.00244141,0.00803223,
2998,-0.0128174,0.00806885,
3000,-0.00610352,0.00809937,
3002,-0.00671387,0.00813599,
3004,-0.00854492,0.0081665,
3006,-0.00732422,0.00817871,
3008,-0.0115967,0.00820923,
3010,-0.00427246,0.00817261,
3012,-0.00671387,0.00817261,
3014,-0.00976563,0.00821533,
3016,0.0012207,0.00821533,
3018,0.0012207,0.0081665,
3020,0.00854492,0.00817261,
3022,-0.00671387,0.00817871,
3024,-0.0146484,0.00825806,
3026,-0.0012207,0.00817871,
3028,-0.00488281,0.00814819,
3030,-0.00305176,0.00805664,
3032,-0.0115967,0.00803223,
3034,-0.020752,0.00813599,
3036,-0.0183105,0.00825195,
3038,-0.00793457,0.00831299,
3040,-0.00976563,0.00839844,
3042,-0.00854492,0.0083252,
3044,-0.00671387,0.00836182,
3046,-0.00366211,0.00830688,
3048,-0.010376,0.00829468,
3050,-0.00732422,0.00828247,
3052,-0.00610352,0.0081543,
3054,-0.00183105,0.00801392,
3056,-0.00488281,0.00797119,
3058,-0.0140381,0.00789185,
3060,-0.0109863,0.00794678,
3062,-0.00549316,0.00795288,
3064,-0.0109863,0.00795288,
3066,-0.00671387,0.00800171,
3068,-0.00793457,0.00804443,
3070,-0.00549316,0.00803833,
3072,-0.00427246,0.00805054,
3074,0.00244141,0.00800171,
3076,0.00305176,0.0079895,
3078,-0.0164795,0.00805664,
3080,-0.00610352,0.00801392,
3082,-0.00244141,0.0079834,
3084,-0.00610352,0.0079895,
3086,-0.00610352,0.00803223,
3088,-0.0189209,0.00808716,
3090,-0.0152588,0.00819092,
3092,-0.00366211,0.00819092,
3094,0.00305176,0.00822144,
3096,-0.00366211,0.00811157,
3098,-0.0231934,0.00822754,
3100,-0.00793457,0.00828857,
3102,-0.00244141,0.00814819,
3104,-0.0109863,0.00809326,
3106,-0.010376,0.00812378,
3108,-0.0189209,0.00814819,
3110,-0.00366211,0.00806274,
3112,-0.010376,0.00808105,
3114,-0.012207,0.0081604,
3116,-0.00305176,0.00812988,
3118,-0.00183105,0.00813599,
3120,-0.00244141,0.00806274,
3122,-0.00549316,0.00811768,
3124,-0.00305176,0.00809937,
3126,-0.0128174,0.0081665,
3128,-0.00793457,0.0081543,
3130,-0.00854492,0.0081604,
3132,-0.00305176,0.00812988,
3134,-0.00305176,0.00803223,
3136,-0.00305176,0.00800171,
3138,-0.0158691,0.00806885,
3140,-0.00854492,0.00809326,
3142,-0.00305176,0.00803223,
3144,-0.000610352,0.0079895,
3146,-0.00549316,0.00800781,
3148,-0.0170898,0.00807495,
3150,-0.0158691,0.00818481,
3152,-0.00427246,0.00813599,
3154,-0.00610352,0.00811768,
3156,0,0.00805054,
3158,-0.010376,0.00804443,
3160,-0.010376,0.00813599,
3162,-0.00488281,0.00796509,
3164,-0.00488281,0.00795898,
3166,-0.00549316,0.0079895,
3168,-0.00183105,0.00786743,
3170,-0.00732422,0.00784302,
3172,-0.0158691,0.00782471,
3174,-0.00549316,0.00769653,
3176,-0.0012207,0.00755615,
3178,-0.0012207,0.00745239,
3180,-0.00488281,0.00741577,
3182,-0.0164795,0.00749512,
3184,-0.0134277,0.00755615,
3186,-0.00183105,0.00754395,
3188,-0.0140381,0.00758057,
3190,-0.00976563,0.00762329,
3192,-0.0152588,0.00771484,
3194,-0.0115967,0.00776367,
3196,-0.00549316,0.00779419,
3198,-0.00915527,0.00775757,
3200,0.0012207,0.00770874,
3202,-0.012207,0.00776367,
3204,-0.0146484,0.00782471,
3206,-0.00244141,0.00777588,
3208,-0.0128174,0.00778809,
3210,-0.012207,0.00786743,
3212,-0.010376,0.00790405,
3214,-0.0140381,0.00794678,
3216,-0.0012207,0.00794678,
3218,-0.010376,0.00803833,
3220,-0.012207,0.00807495,
3222,-0.00305176,0.00803833,
3224,-0.00366211,0.00792847,
3226,-0.0012207,0.00792847,
3228,-0.00488281,0.00792847,
3230,-0.00671387,0.00796509,
3232,-0.0128174,0.00797729,
3234,0.00793457,0.00784912,
3236,-0.00488281,0.00771484,
3238,-0.0201416,0.00783691,
3240,-0.000610352,0.00774536,
3242,-0.00610352,0.00772095,
3244,-0.00488281,0.00770264,
3246,-0.00610352,0.00772705,
3248,-0.0115967,0.00773926,
3250,-0.00549316,0.00772095,
3252,-0.00488281,0.00770874,
3254,-0.0012207,0.00770264,
3256,0.0012207,0.00766602,
3258,-0.00854492,0.00761108,
3260,-0.00976563,0.00759888,
3262,-0.000610352,0.00755005,
3264,-0.0140381,0.00758057,
3266,-0.00488281,0.00756226,
3268,-0.00549316,0.00753784,
3270,-0.0134277,0.00761719,
3272,-0.00915527,0.00766602,
3274,-0.00854492,0.00772705,
3276,-0.00976563,0.00779419,
3278,-0.0115967,0.00774536,
3280,-0.010376,0.00778809,
3282,-0.0158691,0.00792236,
3284,-0.00488281,0.00791016,
3286,-0.00976563,0.00794678,
3288,-0.00915527,0.00784912,
3290,-0.00854492,0.00778198,
3292,-0.00732422,0.0078186,
3294,-0.00183105,0.0078064,
3296,0.000610352,0.00777588,
3298,-0.00549316,0.00759888,
3300,-0.00610352,0.00758057,
3302,0.00244141,0.00758057,
3304,0.00183105,0.00748901,
3306,-0.00915527,0.00747681,
3308,-0.010376,0.00739136,
3310,-0.00244141,0.00737915,
3312,-0.00610352,0.00733643,
3314,-0.00427246,0.00725708,
3316,-0.00366211,0.00726318,
3318,-0.0128174,0.00737305,
3320,-0.00610352,0.00740967,
3322,-0.00366211,0.00739136,
3324,-0.00244141,0.00738525,
3326,-0.0012207,0.00726929,
3328,-0.012207,0.00731201,
3330,-0.00549316,0.00728149,
3332,-0.00244141,0.00727539,
3334,-0.010376,0.00734863,
3336,-0.0164795,0.00748291,
3338,-0.00915527,0.00741577,
3340,-0.00610352,0.00739136,
3342,-0.00366211,0.00739746,
3344,-0.00732422,0.0074646,
3346,-0.0134277,0.00754395,
3348,-0.00915527,0.0074646,
3350,0.00183105,0.00732422,
3352,-0.00610352,0.00734253,
3354,-0.00671387,0.00734863,
3356,-0.00976563,0.00744629,
3358,-0.00732422,0.00741577,
3360,-0.00183105,0.00733032,
3362,-0.00610352,0.00734253,
3364,-0.00915527,0.00738525,
3366,0.00244141,0.00735474,
3368,-0.00183105,0.00735474,
3370,-0.00549316,0.00733643,
3372,0,0.00717773,
3374,-0.00183105,0.00714111,
3376,0.00183105,0.00714722,
3378,-0.000610352,0.00714111,
3380,0.0012207,0.00710449,
3382,0.0012207,0.0069519,
3384,-0.00793457,0.00689697,
3386,-0.00366211,0.00691528,
3388,-0.00976563,0.00687256,
3390,-0.00854492,0.00686035,
3392,-0.00366211,0.00674438,
3394,-0.00244141,0.00665283,
3396,-0.00671387,0.00666504,
3398,-0.00915527,0.00666504,
3400,-0.00549316,0.00670776,
3402,-0.0012207,0.0065979,
3404,-0.00183105,0.00646973,
3406,0.00305176,0.00647583,
3408,-0.010376,0.00645142,
3410,-0.012207,0.00645142,
3412,-0.00976563,0.00644531,
3414,-0.00854492,0.00639038,
3416,-0.00488281,0.006427,
3418,-0.0152588,0.00647583,
3420,-0.00793457,0.00643311,
3422,-0.00366211,0.00643921,
3424,-0.0134277,0.00653687,
3426,-0.00549316,0.00657959,
3428,-0.00427246,0.00657349,
3430,-0.00366211,0.00654297,
3432,-0.00793457,0.00649414,
3434,-0.00915527,0.00650635,
3436,-0.00732422,0.00653076,
3438,-0.0115967,0.00644531,
3440,-0.00549316,0.00649414,
3442,-0.00610352,0.00649414,
3444,-0.000610352,0.00645142,
3446,-0.00671387,0.00645752,
3448,-0.0134277,0.00647583,
3450,-0.00366211,0.00645752,
3452,-0.00732422,0.00648193,
3454,-0.00305176,0.00650024,
3456,0.010376,0.0065918,
3458,-0.0134277,0.00664063,
3460,-0.0201416,0.00674438,
3462,-0.00610352,0.00679932,
3464,-0.00305176,0.00668945,
3466,-0.00915527,0.00673218,
3468,-0.0183105,0.00686035,
3470,-0.012207,0.00684814,
3472,-0.010376,0.00686035,
3474,-0.00976563,0.00687256,
3476,-0.0128174,0.00690308,
3478,-0.0128174,0.00691528,
3480,-0.00610352,0.00687256,
3482,-0.00671387,0.00678101,
3484,-0.00976563,0.00682983,
3486,-0.0109863,0.00684204,
3488,-0.0134277,0.00688477,
3490,-0.00488281,0.00684814,
3492,-0.0109863,0.00688477,
3494,-0.00610352,0.00692749,
3496,-0.00244141,0.0069458,
3498,-0.0115967,0.00700684,
3500,-0.00305176,0.00697632,
3502,-0.00488281,0.00700073,
3504,-0.00732422,0.00705566,
3506,-0.00366211,0.00700073,
3508,-0.00976563,0.00699463,
3510,-0.00488281,0.00701904,
3512,-0.00793457,0.00703735,
3514,-0.0115967,0.0071106,
3516,0,0.00707397,
3518,-0.00366211,0.00698242,
3520,-0.000610352,0.00692749,
3522,-0.00305176,0.00692139,
3524,0.00305176,0.00692749,
3526,0.00610352,0.00697632,
3528,0.00244141,0.00687866,
3530,-0.000610352,0.00682983,
3532,-0.0170898,0.00697632,
3534,-0.00488281,0.00692139,
3536,-0.00305176,0.00678711,
3538,-0.0195313,0.00689087,
3540,-0.020752,0.00703735,
3542,-0.0140381,0.00714111,
3544,-0.0146484,0.00721436,
3546,-0.00427246,0.0071228,
3548,-0.00976563,0.00712891,
3550,-0.00610352,0.00717163,
3552,-0.00732422,0.00718384,
3554,-0.00244141,0.00714111,
3556,-0.00183105,0.00706177,
3558,-0.010376,0.00709229,
3560,-0.00732422,0.00714722,
3562,-0.00488281,0.00713501,
3564,-0.00610352,0.00710449,
3566,-0.0012207,0.00709229,
3568,-0.00427246,0.0071167,
3570,-0.0115967,0.00717773,
3572,-0.00671387,0.00724487,
3574,-0.000610352,0.00723267,
3576,-0.00488281,0.00726318,
3578,-0.012207,0.00737915,
3580,-0.0109863,0.00747681,
3582,-0.00976563,0.00756226,
3584,-0.0109863,0.00759277,
3586,-0.00854492,0.0076416,
3588,-0.0128174,0.00767212,
3590,-0.000610352,0.00759277,
3592,-0.000610352,0.00756226,
3594,-0.00854492,0.00762329,
3596,0,0.00755615,
3598,0.00488281,0.00751343,
3600,-0.00793457,0.00753784,
3602,-0.0140381,0.00766602,
3604,-0.00549316,0.00770264,
3606,-0.00488281,0.00772095,
3608,-0.0244141,0.00786133,
3610,-0.0134277,0.00787354,
3612,-0.010376,0.00787964,
3614,-0.0164795,0.00795898,
3616,-0.00915527,0.00800171,
3618,-0.0109863,0.00795898,
3620,-0.00427246,0.00792236,
3622,0,0.00788574,
3624,-0.00854492,0.00783691,
3626,-0.00671387,0.00784912,
3628,-0.0140381,0.00794678,
3630,-0.00488281,0.00795898,
3632,-0.00793457,0.00795898,
3634,-0.012207,0.0079895,
3636,-0.0128174,0.00804443,
3638,-0.00854492,0.00801392,
3640,-0.0109863,0.00806885,
3642,-0.0128174,0.00813599,
3644,-0.000610352,0.00813599,
3646,-0.00976563,0.0081665,
3648,-0.00732422,0.00810547,
3650,-0.00976563,0.0081665,
3652,-0.00366211,0.00812988,
3654,-0.00244141,0.00812378,
3656,-0.00305176,0.00805054,
3658,-0.0115967,0.00803223,
3660,-0.00366211,0.00786743,
3662,-0.00244141,0.00783081,
3664,-0.00305176,0.00783081,
3666,-0.00671387,0.0078064,
3668,-0.0152588,0.00777588,
3670,0.00427246,0.00769653,
3672,0.00183105,0.00761108,
3674,-0.00610352,0.00757446,
3676,-0.00793457,0.00752563,
3678,-0.0134277,0.00753174,
3680,0.0128174,0.00759888,
3682,0.010376,0.0076355,
3684,0.00244141,0.00756226,
3686,-0.0109863,0.00756226,
3688,-0.00976563,0.00752563,
3690,0.00488281,0.00752563,
3692,-0.0012207,0.00742798,
3694,-0.000610352,0.00737305,
3696,-0.0128174,0.00747681,
3698,-0.00610352,0.00742187,
3700,-0.0115967,0.00750732,
3702,-0.0189209,0.00764771,
3704,-0.010376,0.00767822,
3706,-0.00915527,0.00773315,
3708,-0.0128174,0.00776367,
3710,-0.0158691,0.00787354,
3712,-0.0115967,0.00791016,
3714,-0.012207,0.00791626,
3716,0,0.00791626,
3718,-0.0012207,0.00789185,
3720,0.00305176,0.00791626,
3722,0.00610352,0.00794678,
3724,0.00671387,0.0079834,
3726,0,0.00792236,
3728,0.00244141,0.00792236,
3730,0.00488281,0.00796509,
3732,0.0012207,0.0078064,
3734,0.00671387,0.00782471,
3736,0.00671387,0.00786133,
3738,0.0012207,0.00767822,
3740,-0.00732422,0.00754395,
3742,0.00488281,0.00745239,
3744,0.00183105,0.00732422,
3746,-0.00610352,0.00734253,
3748,-0.00976563,0.00734253,
3750,-0.00427246,0.00732422,
3752,0.00244141,0.00727539,
3754,-0.0134277,0.00738525,
3756,0.000610352,0.00737305,
3758,-0.00488281,0.00731812,
3760,-0.00366211,0.00728149,
3762,0.00976563,0.00733032,
3764,0.0134277,0.00740356,
3766,0.0201416,0.00759277,
3768,0.00793457,0.00762939,
3770,0.0305176,0.0078186,
3772,0.0146484,0.00789795,
3774,0,0.00789185,
3776,-0.0012207,0.00785522,
3778,-0.0134277,0.00786743,
3780,-0.0286865,0.00804443,
3782,-0.0262451,0.00820923,
3784,-0.0402832,0.0085022,
3786,-0.0360107,0.00877686,
3788,-0.0323486,0.00897217,
3790,-0.0140381,0.00910645,
3792,0.010376,0.0092041,
3794,0.00366211,0.00915527,
3796,0.0177002,0.00933228,
3798,0.00732422,0.00935669,
3800,0.0128174,0.00940552,
3802,0.00549316,0.00932007,
3804,0.00244141,0.00928955,
3806,0.0146484,0.00938721,
3808,-0.010376,0.00924683,
3810,-0.020752,0.00932007,
3812,-0.0402832,0.00961914,
3814,0.012207,0.00957642,
3816,0.00549316,0.00953979,
3818,0,0.00942993,
3820,-0.00366211,0.00942383,
3822,0.000610352,0.00942993,
3824,-0.0164795,0.00950928,
3826,0.0115967,0.00955811,
3828,-0.00915527,0.00950928,
3830,-0.00610352,0.00952148,
3832,-0.00915527,0.00953369,
3834,-0.0195313,0.00960693,
3836,-0.00671387,0.0095459,
3838,-0.00427246,0.00950317,
3840,0.0213623,0.00960693,
3842,0.00183105,0.00949707,
3844,0.0115967,0.00960693,
3846,-0.00183105,0.00952759,
3848,0.022583,0.00968018,
3850,-0.00183105,0.00960083,
3852,0.0012207,0.00957642,
3854,0.0378418,0.00993042,
3856,0.00183105,0.00991821,
3858,0.0286865,0.0100891,
3860,0.0170898,0.0102234,
3862,0.032959,0.0105286,
3864,0.0408936,0.010907,
3866,0.0427246,0.0112671,
3868,0.0354004,0.0114685,
3870,0.0115967,0.0115417,
3872,-0.012207,0.0116455,
3874,0.0231934,0.0118164,
3876,0.020752,0.0119446,
3878,-0.0360107,0.0121704,
3880,0.012207,0.0121643,
3882,0.0384521,0.0124451,
3884,0.00854492,0.0125061,
3886,0.0280762,0.012677,
3888,0.0335693,0.012915,
3890,0.022583,0.013092,
3892,-0.03479,0.0134277,
3894,-0.0341797,0.0137634,
3896,-0.0268555,0.0139038,
3898,-0.00976563,0.0139404,
3900,-0.0115967,0.0139404,
3902,-0.0286865,0.0140381,
3904,-0.0372314,0.0143066,
3906,-0.0219727,0.0144348,
3908,0.090332,0.01521,
3910,0.0286865,0.0153381,
3912,-0.0140381,0.0153625,
3914,-0.010376,0.0153442,
3916,-0.0457764,0.015802,
3918,-0.065918,0.016449,
3920,-0.0335693,0.0167542,
3922,-0.0665283,0.0173584,
3924,-0.0427246,0.0177185,
3926,-0.032959,0.0180481,
3928,-0.0183105,0.0182068,
3930,0.022583,0.0183838,
3932,0.0500488,0.0188721,
3934,0.0390625,0.0191956,
3936,0.0268555,0.019397,
3938,0.000610352,0.0193909,
3940,-0.00244141,0.019342,
3942,-0.0012207,0.0193054,
3944,0.0189209,0.0194763,
3946,-0.0323486,0.0197388,
3948,-0.0921631,0.0205627,
3950,-0.00366211,0.0205566,
3952,-0.057373,0.021106,
3954,-0.0158691,0.0211304,
3956,-0.00671387,0.0211914,
3958,-0.0152588,0.0212952,
3960,0.0164795,0.0214233,
3962,0.0323486,0.0216492,
3964,0.0189209,0.0217041,
3966,-0.0164795,0.0216675,
3968,0.0787354,0.0223755,
3970,0.045166,0.022522,
3972,-0.0775146,0.0231506,
3974,0.0402832,0.0235535,
3976,-0.0439453,0.0239807,
3978,-0.0476074,0.0243225,
3980,-0.0360107,0.0243958,
3982,-0.0372314,0.0245056,
3984,-0.045166,0.0245544,
3986,-0.0366211,0.0245605,
3988,-0.0292969,0.02453,
3990,0.0152588,0.0245422,
3992,0.0360107,0.0247986,
3994,0.0323486,0.0250854,
3996,-0.0646973,0.0255554,
3998,0.00610352,0.0255432,
4000,0.0274658,0.0256897,
4002,-0.00183105,0.0256531,
4004,-0.0231934,0.0258606,
4006,-0.0268555,0.0259827,
4008,-0.0335693,0.0262146,
4010,-0.0372314,0.0263794,
4012,-0.00366211,0.0260132,
4014,-0.0292969,0.0261841,
4016,0.0158691,0.0262878,
4018,0.0128174,0.026416,
4020,0.00854492,0.0264648,
4022,0.00854492,0.0265442,
4024,-0.0170898,0.0265503,
4026,0.0372314,0.0268066,
4028,0.032959,0.0270447,
4030,0.00732422,0.0270569,
4032,0.0250244,0.0272156,
4034,0.000610352,0.0270264,
4036,-0.00671387,0.0270264,
4038,-0.0390625,0.0273743,
4040,-0.00549316,0.0272156,
4042,-0.0299072,0.0274963,
4044,-0.0311279,0.0276917,
4046,-0.0494385,0.0281677,
4048,-0.0256348,0.0281982,
4050,-0.0476074,0.028656,
4052,-0.0292969,0.0289368,
4054,-0.00488281,0.0286072,
4056,0.00732422,0.0286621,
4058,0.00244141,0.0283997,
4060,0.0402832,0.0286316,
4062,0.0372314,0.0286743,
4064,0.0292969,0.0285583,
4066,-0.00183105,0.0281494,
4068,-0.0012207,0.0278076,
4070,-0.00427246,0.0277344,
4072,-0.00427246,0.027655,
4074,-0.0299072,0.0277222,
4076,0.000610352,0.0275208,
4078,-0.00732422,0.0272339,
4080,-0.0439453,0.0275513,
4082,0.0128174,0.0272949,
4084,0.0115967,0.0273254,
4086,-0.0238037,0.0272827,
4088,-0.0140381,0.0270874,
4090,0.00305176,0.0268921,
4092,-0.0372314,0.0269165,
4094,-0.0408936,0.0269836,
4096,0.00244141,0.0267395,
4098,-0.03479,0.0269897,
4100,-0.00854492,0.0269592,
4102,-0.0231934,0.0269043,
4104,0.00305176,0.0265625,
4106,-0.00427246,0.0263855,
4108,-0.00488281,0.025531,
4110,-0.020752,0.0254517,
4112,-0.00610352,0.0253723,
4114,-0.00732422,0.0253418,
4116,0.00976563,0.0249817,
4118,-0.00244141,0.0243469,
4120,-0.03479,0.0243591,
4122,-0.0195313,0.0238892,
4124,-0.0128174,0.0235901,
4126,0.00976563,0.0233582,
4128,0.00183105,0.0231934,
4130,-0.0134277,0.0231018,
4132,0.0305176,0.0229065,
4134,0.0305176,0.022821,
4136,0.0531006,0.0230835,
4138,0.0701904,0.0237793,
4140,0.0183105,0.023938,
4142,-0.0366211,0.024292,
4144,0.0701904,0.0248047,
4146,0.0421143,0.0249023,
4148,-0.0354004,0.0243347,
4150,-0.0592041,0.0248901,
4152,-0.0457764,0.0247742,
4154,-0.0341797,0.0249573,
4156,-0.0280762,0.0251709,
4158,-0.0286865,0.0253052,
4160,-0.0476074,0.0256165,
4162,-0.00366211,0.0253296,
4164,-0.00610352,0.0252014,
4166,-0.0366211,0.0254028,
4168,0.0146484,0.024762,
4170,0.0238037,0.0245483,
4172,-0.0140381,0.0239136,
4174,-0.0115967,0.0236267,
4176,-0.0354004,0.0235413,
4178,-0.0256348,0.0233215,
4180,-0.00915527,0.023053,
4182,-0.022583,0.0229065,
4184,-0.0256348,0.0227112,
4186,0.0146484,0.0224915,
4188,-0.00244141,0.0222229,
4190,0.0201416,0.0222717,
4192,-0.00549316,0.0219666,
4194,0.00549316,0.021698,
4196,0.00854492,0.0211365,
4198,0.0219727,0.0212952,
4200,0.0177002,0.0211975,
4202,0.0231934,0.0214111,
4204,0.010376,0.021283,
4206,0.0305176,0.0213196,
4208,-0.0262451,0.0212463,
4210,0.00488281,0.0209229,
4212,0.0421143,0.0213074,
4214,-0.0152588,0.021167,
4216,-0.010376,0.0211121,
4218,-0.0140381,0.0211243,
4220,-0.0231934,0.0212708,
4222,-0.0286865,0.0214722,
4224,-0.0415039,0.0217163,
4226,-0.00671387,0.0214111,
4228,0.0012207,0.0210938,
4230,-0.0585938,0.0216064,
4232,-0.0537109,0.0218933,
4234,-0.0256348,0.0221436,
4236,-0.00854492,0.0221619,
4238,-0.00671387,0.0218384,
4240,-0.0012207,0.0217957,
4242,0.0396729,0.0218933,
4244,-0.010376,0.0216858,
4246,-0.0244141,0.0214355,
4248,0.045166,0.0216309,
4250,0.00854492,0.0212402,
4252,-0.00183105,0.0209656,
4254,-0.0238037,0.0211548,
4256,-0.0213623,0.0212952,
4258,-0.03479,0.0216187,
4260,-0.00427246,0.0212585,
4262,-0.00488281,0.0209351,
4264,-0.0158691,0.0208008,
4266,-0.0201416,0.0209839,
4268,-0.00549316,0.0210266,
4270,0.0012207,0.0209961,
4272,0.0189209,0.0211426,
4274,0.0238037,0.0210815,
4276,-0.00671387,0.0211426,
4278,-0.00244141,0.0210938,
4280,0.022583,0.0208801,
4282,0.0128174,0.0208801,
4284,-0.0360107,0.0211243,
4286,-0.0012207,0.0208984,
4288,0.00488281,0.0208069,
4290,-0.0012207,0.0207886,
4292,-0.0402832,0.0208191,
4294,-0.012207,0.0205322,
4296,-0.0115967,0.0206238,
4298,-0.0195313,0.0204712,
4300,0.0250244,0.020636,
4302,-0.00915527,0.0204956,
4304,-0.00671387,0.0205322,
4306,-0.0146484,0.020636,
4308,0.00610352,0.0206482,
4310,-0.00183105,0.020459,
4312,-0.0134277,0.0205322,
4314,0.00671387,0.0205261,
4316,-0.0378418,0.0208069,
4318,-0.00488281,0.0208313,
4320,0.00854492,0.0205688,
4322,0.00732422,0.0204468,
4324,0.0152588,0.0204712,
4326,-0.00549316,0.0204285,
4328,0.0311279,0.0207214,
4330,0.0531006,0.0211182,
4332,0.012207,0.0209351,
4334,-0.00244141,0.0206543,
4336,0.0012207,0.0201355,
4338,-0.0231934,0.0196655,
4340,-0.0146484,0.0196289,
4342,-0.00427246,0.0193054,
4344,-0.0372314,0.0189758,
4346,-0.0640869,0.0191956,
4348,-0.032959,0.0191711,
4350,-0.00732422,0.0186523,
4352,-0.0244141,0.0184387,
4354,-0.0109863,0.0182068,
4356,0.00488281,0.0179749,
4358,-0.0012207,0.0177002,
4360,0.00671387,0.0172913,
4362,0.0158691,0.0174133,
4364,0.03479,0.0177002,
4366,-0.0408936,0.0177429,
4368,-0.00366211,0.0176331,
4370,0.0286865,0.0176819,
4372,-0.0305176,0.0178467,
4374,-0.0280762,0.0180115,
4376,-0.000610352,0.0176636,
4378,-0.0250244,0.0176575,
4380,-0.0335693,0.0179016,
4382,-0.00488281,0.0177246,
4384,0.00549316,0.0175232,
4386,-0.0415039,0.0177917,
4388,-0.0109863,0.0178772,
4390,-0.00610352,0.0177368,
4392,-0.0177002,0.0178589,
4394,-0.0109863,0.0179138,
4396,0.0012207,0.0178406,
4398,-0.0158691,0.0177795,
4400,0.0195313,0.0177979,
4402,0.0292969,0.0178589,
4404,-0.0280762,0.0180359,
4406,0.00915527,0.0178223,
4408,0.0170898,0.0177307,
4410,0.00366211,0.0177185,
4412,0.0158691,0.0174561,
4414,-0.00915527,0.017395,
4416,0.0177002,0.0174683,
4418,-0.0561523,0.0178894,
4420,0.010376,0.0177612,
4422,0.00549316,0.0175293,
4424,-0.0170898,0.0172852,
4426,-0.00732422,0.0172913,
4428,-0.0140381,0.0174194,
4430,-0.0384521,0.017218,
4432,-0.0231934,0.0169128,
4434,0.0170898,0.0168274,
4436,-0.0341797,0.0170837,
4438,-0.0256348,0.0172729,
4440,-0.00488281,0.0173096,
4442,-0.00854492,0.0169983,
4444,0.00915527,0.0169861,
4446,0.0134277,0.0168762,
4448,-0.0646973,0.0170715,
4450,0.0170898,0.017157,
4452,-0.00305176,0.0171692,
4454,-0.00305176,0.0169617,
4456,-0.0128174,0.0168762,
4458,0.00610352,0.0165894,
4460,0.0305176,0.0168518,
4462,0.0292969,0.0170959,
4464,-0.0512695,0.01745,
4466,0.00671387,0.0173157,
4468,0.0286865,0.0175476,
4470,-0.00732422,0.0176086,
4472,-0.032959,0.017749,
4474,-0.0335693,0.0178467,
4476,-0.0012207,0.0177917,
4478,0.0262451,0.0180298,
4480,-0.00610352,0.017865,
4482,-0.0494385,0.0182312,
4484,0.0140381,0.0180115,
4486,0.045166,0.0184509,
4488,-0.0189209,0.0185913,
4490,-0.0256348,0.0188354,
4492,0.00244141,0.018457,
4494,-0.0250244,0.0185852,
4496,-0.0213623,0.0186829,
4498,-0.0317383,0.0188049,
4500,-0.00488281,0.0186035,
4502,0.00854492,0.0185974,
4504,-0.0146484,0.0186768,
4506,-0.032959,0.0188599,
4508,-0.000610352,0.0188049,
4510,-0.00305176,0.0188171,
4512,-0.00244141,0.0187073,
4514,0.0152588,0.0187927,
4516,0.00671387,0.0184814,
4518,-0.0317383,0.01875,
4520,0.00366211,0.0187012,
4522,-0.0134277,0.0187622,
4524,-0.00732422,0.0186829,
4526,-0.00793457,0.0187073,
4528,-0.00610352,0.018457,
4530,0.00915527,0.0180176,
4532,-0.00793457,0.0179749,
4534,0.00244141,0.0179749,
4536,-0.0244141,0.0182068,
4538,-0.000610352,0.017981,
4540,-0.000610352,0.0178406,
4542,-0.010376,0.0179016,
4544,-0.0012207,0.0175415,
4546,0.000610352,0.0169067,
4548,-0.0140381,0.0167175,
4550,0.00976563,0.0167419,
4552,0.0140381,0.0166382,
4554,0,0.0165283,
4556,-0.0286865,0.0167664,
4558,0.00915527,0.0168457,
4560,-0.0115967,0.0168945,
4562,-0.0128174,0.016864,
4564,-0.0421143,0.0169373,
4566,-0.0183105,0.0167114,
4568,-0.00549316,0.0167297,
4570,0,0.0164429,
4572,-0.0134277,0.016272,
4574,-0.0115967,0.0161072,
4576,-0.000610352,0.0161072,
4578,-0.0115967,0.0159729,
4580,0.00671387,0.0157043,
4582,0.0164795,0.0158203,
4584,-0.0219727,0.0159851,
4586,0.0335693,0.0159058,
4588,0.0152588,0.0159485,
4590,-0.0134277,0.0160217,
4592,-0.0115967,0.0159607,
4594,0.0195313,0.0160461,
4596,0.00305176,0.0160645,
4598,-0.0378418,0.0162842,
4600,-0.00549316,0.0161438,
4602,-0.00183105,0.0158691,
4604,0.00854492,0.0156738,
4606,0.0720215,0.0163025,
4608,-0.00671387,0.0161987,
4610,-0.0183105,0.0163452,
4612,0.00366211,0.0162231,
4614,0,0.0161316,
4616,-0.00366211,0.0159912,
4618,-0.0372314,0.015802,
4620,-0.0512695,0.0162109,
4622,-0.0421143,0.0165771,
4624,-0.0311279,0.0167175,
4626,-0.00305176,0.0166748,
4628,0.012207,0.0166565,
4630,-0.0189209,0.0164612,
4632,-0.0219727,0.016449,
4634,-0.0012207,0.0162903,
4636,0.00854492,0.0160339,
4638,-0.0177002,0.0159546,
4640,-0.00732422,0.015979,
4642,-0.0250244,0.0161438,
4644,0.0012207,0.0160645,
4646,-0.00549316,0.0159851,
4648,-0.0189209,0.0155273,
4650,0.0170898,0.0155273,
4652,-0.0164795,0.0156616,
4654,-0.00366211,0.0156677,
4656,0.0158691,0.0156982,
4658,-0.00549316,0.0156921,
4660,-0.0335693,0.0157227,
4662,-0.00854492,0.0155151,
4664,-0.0231934,0.0152344,
4666,0.0390625,0.0155579,
4668,-0.00732422,0.0153442,
4670,-0.0140381,0.0154114,
4672,0.032959,0.0154114,
4674,-0.0109863,0.0151855,
4676,0.0201416,0.0153748,
4678,0.00671387,0.0151794,
4680,-0.0189209,0.0153076,
4682,0.00976563,0.0149109,
4684,0.00854492,0.014856,
4686,-0.032959,0.0147339,
4688,-0.00976563,0.0146423,
4690,-0.0140381,0.0145264,
4692,-0.022583,0.0147278,
4694,-0.00549316,0.0145325,
4696,0.00183105,0.0143372,
4698,-0.0170898,0.0141907,
4700,-0.0274658,0.0144165,
4702,0.00427246,0.0143738,
4704,-0.0164795,0.0143921,
4706,-0.0189209,0.0142517,
4708,-0.0317383,0.014563,
4710,-0.00183105,0.0145508,
4712,-0.022583,0.0147522,
4714,-0.0152588,0.0147522,
4716,-0.0128174,0.0148132,
4718,-0.00305176,0.0145264,
4720,-0.00854492,0.0145752,
4722,-0.010376,0.0145447,
4724,0.00671387,0.0145386,
4726,0.00183105,0.0144775,
4728,0.0109863,0.0145264,
4730,0.0170898,0.0146057,
4732,-0.020752,0.0147339,
4734,0.0140381,0.0148499,
4736,0.00671387,0.0146729,
4738,-0.00183105,0.0146851,
4740,0.0311279,0.0149902,
4742,0.0115967,0.0150024,
4744,0.00549316,0.0150452,
4746,0.00305176,0.0150696,
4748,0.0164795,0.015094,
4750,-0.00610352,0.0150574,
4752,0.00305176,0.0149475,
4754,-0.0231934,0.0151794,
4756,-0.020752,0.0151001,
4758,-0.0164795,0.0151733,
4760,-0.010376,0.0151611,
4762,-0.0262451,0.0152954,
4764,-0.00854492,0.0149597,
4766,-0.00671387,0.0148437,
4768,-0.0152588,0.0149414,
4770,-0.00671387,0.0150085,
4772,-0.0012207,0.0148865,
4774,-0.032959,0.0151001,
4776,-0.00976563,0.0151917,
4778,-0.0012207,0.0150879,
4780,0.0158691,0.0151794,
4782,0.0140381,0.015155,
4784,0.0292969,0.0152283,
4786,0.0170898,0.0150635,
4788,0.00183105,0.0149292,
4790,-0.0274658,0.0150696,
4792,0.0219727,0.0151733,
4794,0.00244141,0.0150024,
4796,-0.0317383,0.0152893,
4798,-0.0354004,0.0152649,
4800,-0.0012207,0.0152222,
4802,-0.0238037,0.0154419,
4804,-0.0305176,0.0156616,
4806,0.0268555,0.01521,
4808,0.0134277,0.0152771,
4810,-0.0274658,0.0153687,
4812,0.00549316,0.015387,
4814,-0.03479,0.0157349,
4816,0.000610352,0.0157043,
4818,-0.00915527,0.0154236,
4820,-0.012207,0.015033,
4822,-0.00854492,0.0146973,
4824,-0.0250244,0.0146362,
4826,-0.00793457,0.0146851,
4828,-0.0140381,0.0147034,
4830,-0.00610352,0.0145752,
4832,-0.00549316,0.0144104,
4834,-0.00427246,0.0144409,
4836,0.0164795,0.0145203,
4838,-0.00732422,0.0144165,
4840,0.000610352,0.0143494,
4842,0.0012207,0.0141113,
4844,-0.00366211,0.0141357,
4846,0.0164795,0.0142456,
4848,0.0152588,0.014209,
4850,-0.0323486,0.0143616,
4852,0.000610352,0.0142029,
4854,-0.022583,0.0143921,
4856,0.0170898,0.0144043,
4858,0.000610352,0.0143555,
4860,0.00976563,0.0141174,
4862,-0.000610352,0.0140381,
4864,-0.0250244,0.0140564,
4866,-0.00366211,0.0137024,
4868,0.0134277,0.0137634,
4870,-0.000610352,0.0136292,
4872,0.0152588,0.0134521,
4874,-0.0134277,0.0134766,
4876,-0.0360107,0.0136353,
4878,0.010376,0.0136719,
4880,0.0164795,0.0136475,
4882,-0.00793457,0.0136292,
4884,-0.0195313,0.013739,
4886,-0.00854492,0.0134949,
4888,0.0146484,0.0135437,
4890,-0.010376,0.0135071,
4892,-0.0500488,0.0137817,
4894,0.00549316,0.0137817,
4896,0.0152588,0.013916,
4898,-0.0189209,0.0139343,
4900,-0.0256348,0.013916,
4902,-0.00915527,0.0139648,
4904,0.0146484,0.0139465,
4906,0.0115967,0.0138733,
4908,-0.020752,0.0137634,
4910,0.00427246,0.0137878,
4912,0.00183105,0.0135803,
4914,-0.00366211,0.0134644,
4916,0.0012207,0.0133484,
4918,-0.0201416,0.0135193,
4920,-0.03479,0.0137817,
4922,-0.00183105,0.0136963,
4924,-0.0012207,0.0136414,
4926,0,0.013623,
4928,-0.00244141,0.0135376,
4930,-0.012207,0.0134888,
4932,-0.00488281,0.0133301,
4934,0.0219727,0.0134094,
4936,0.00732422,0.0134155,
4938,-0.0195313,0.0135925,
4940,-0.0128174,0.0134094,
4942,-0.012207,0.0134155,
4944,-0.0109863,0.0134705,
4946,-0.00427246,0.0134827,
4948,-0.0201416,0.0135193,
4950,-0.020752,0.0136658,
4952,-0.000610352,0.0136414,
4954,-0.0115967,0.0135254,
4956,-0.0115967,0.0134338,
4958,-0.00183105,0.0132874,
4960,0.0134277,0.0133179,
4962,-0.00427246,0.0130981,
4964,-0.00671387,0.0130798,
4966,-0.00549316,0.0130676,
4968,0.00183105,0.0129333,
4970,0.0115967,0.0129822,
4972,-0.0164795,0.0131348,
4974,-0.0482178,0.0132874,
4976,-0.00366211,0.0132263,
4978,0.0012207,0.0132263,
4980,-0.022583,0.0132935,
4982,-0.00549316,0.013208,
4984,-0.00549316,0.01297,
4986,-0.0311279,0.0131104,
4988,0.00427246,0.0131348,
4990,0.000610352,0.0128662,
4992,-0.00549316,0.0127014,
4994,-0.0128174,0.0128052,
4996,0.00488281,0.0125366,
4998,-0.022583,0.0124084,
5000,-0.00854492,0.0124817,
5002,0.0115967,0.0123596,
5004,-0.0189209,0.0122437,
5006,0.0152588,0.0121277,
5008,-0.00915527,0.012085,
5010,0.00610352,0.0118713,
5012,0.00976563,0.0119141,
5014,-0.0128174,0.0116943,
5016,-0.00732422,0.0117615,
5018,-0.00366211,0.0117065,
5020,0.0189209,0.0117737,
5022,-0.0134277,0.0118225,
5024,-0.0231934,0.0118042,
5026,-0.00793457,0.0118042,
5028,0.00244141,0.0116882,
5030,-0.00915527,0.0117188,
5032,-0.022583,0.0118896,
5034,-0.0146484,0.0119934,
5036,0.000610352,0.0118347,
5038,0.00244141,0.0117859,
5040,-0.0134277,0.0119141,
5042,-0.0335693,0.0122375,
5044,-0.00183105,0.0122192,
5046,0.0256348,0.0123108,
5048,0.0195313,0.0123535,
5050,-0.0189209,0.0122192,
5052,-0.0292969,0.0125061,
5054,0.00427246,0.012323,
5056,0.00549316,0.012207,
5058,-0.0115967,0.0123169,
5060,-0.0109863,0.0123291,
5062,-0.0274658,0.0125977,
5064,-0.0195313,0.0125427,
5066,-0.00488281,0.0125549,
5068,0.0140381,0.012561,
5070,0.0140381,0.0126953,
5072,0.00854492,0.0126282,
5074,0.00244141,0.0125183,
5076,0.00549316,0.0122131,
5078,0.0158691,0.0122681,
5080,0.0152588,0.0122559,
5082,-0.0115967,0.0122925,
5084,-0.0384521,0.0124817,
5086,0.0012207,0.0124084,
5088,-0.0109863,0.0123718,
5090,-0.00488281,0.0123169,
5092,-0.0317383,0.0121338,
5094,-0.0286865,0.0123657,
5096,-0.00244141,0.0122375,
5098,-0.0115967,0.0121643,
5100,-0.0201416,0.0121094,
5102,-0.0128174,0.012146,
5104,-0.00854492,0.012085,
5106,-0.00244141,0.0119934,
5108,0,0.0117859,
5110,-0.00793457,0.0118225,
5112,0.00976563,0.0119019,
5114,-0.0012207,0.0118774,
5116,0.0012207,0.0118774,
5118,0.0146484,0.0118225,
5120,-0.010376,0.0115784,
5122,-0.0213623,0.0117737,
5124,-0.0158691,0.0119202,
5126,-0.0152588,0.0120728,
5128,0.0164795,0.0122131,
5130,0.0201416,0.0122925,
5132,-0.0421143,0.0126648,
5134,0.0158691,0.0126038,
5136,0.00366211,0.0125671,
5138,-0.00366211,0.0124084,
5140,0.0201416,0.0124817,
5142,0.0134277,0.0124939,
5144,-0.0469971,0.012854,
5146,-0.0146484,0.0129578,
5148,-0.00488281,0.0128052,
5150,-0.00915527,0.0126892,
5152,-0.0012207,0.0126953,
5154,-0.0415039,0.0129944,
5156,-0.000610352,0.0128845,
5158,-0.00671387,0.0129333,
5160,-0.0115967,0.012915,
5162,0.00244141,0.0128967,
5164,0.0201416,0.013031,
5166,0.00366211,0.0130127,
5168,-0.00366211,0.013031,
5170,-0.0299072,0.0132141,
5172,0.00732422,0.0131226,
5174,-0.00671387,0.0127075,
5176,-0.0189209,0.0128601,
5178,-0.0115967,0.0129639,
5180,-0.00915527,0.0128296,
5182,-0.0177002,0.0129517,
5184,-0.00976563,0.0129944,
5186,-0.00976563,0.0127808,
5188,-0.00732422,0.0128113,
5190,0.010376,0.0129089,
5192,-0.012207,0.0129761,
5194,-0.0146484,0.0129944,
5196,0.010376,0.0130493,
5198,-0.00915527,0.012915,
5200,0.0134277,0.0129639,
5202,-0.0152588,0.0130005,
5204,0.00915527,0.0129028,
5206,0.0158691,0.0129089,
5208,-0.0250244,0.0130676,
5210,0.00183105,0.0130249,
5212,0,0.0129272,
5214,-0.0219727,0.0130188,
5216,-0.00305176,0.0129761,
5218,-0.00610352,0.0130005,
5220,-0.022583,0.0130371,
5222,-0.00427246,0.0129456,
5224,-0.0256348,0.01297,
5226,0.00366211,0.0129272,
5228,-0.00244141,0.0129272,
5230,0.00244141,0.0128601,
5232,-0.00549316,0.0126892,
5234,-0.0152588,0.0126953,
5236,0.00732422,0.0127625,
5238,0.00366211,0.0127747,
5240,-0.00244141,0.0126648,
5242,-0.00976563,0.0124268,
5244,-0.0201416,0.0126099,
5246,-0.00549316,0.0124084,
5248,-0.00610352,0.0122742,
5250,-0.00305176,0.0121155,
5252,-0.012207,0.0119446,
5254,-0.010376,0.0120056,
5256,-0.012207,0.0120728,
5258,-0.00732422,0.01203,
5260,-0.0012207,0.0119324,
5262,0.00732422,0.011731,
5264,-0.00549316,0.0115906,
5266,-0.0128174,0.0116699,
5268,-0.000610352,0.0115356,
5270,0.00488281,0.0114441,
5272,-0.00976563,0.0114563,
5274,-0.00549316,0.0114868,
5276,0.00305176,0.0114624,
5278,0.00549316,0.0113586,
5280,0.00183105,0.0112244,
5282,-0.00427246,0.0111511,
5284,-0.0244141,0.0110107,
5286,0.00976563,0.0110962,
5288,0.00366211,0.0110229,
5290,0.0170898,0.011145,
5292,0.000610352,0.0108337,
5294,0.0244141,0.010791,
5296,-0.0231934,0.0109985,
5298,0.00183105,0.0109009,
5300,-0.00610352,0.0107605,
5302,-0.0189209,0.0108215,
5304,0.00305176,0.0107666,
5306,0.00183105,0.0107605,
5308,-0.0457764,0.0112183,
5310,-0.0164795,0.0113037,
5312,-0.0238037,0.0114441,
5314,-0.00488281,0.0114807,
5316,0.0128174,0.0115967,
5318,-0.00427246,0.0114929,
5320,-0.0335693,0.0117249,
5322,-0.0012207,0.0115234,
5324,0.000610352,0.0113708,
5326,0.00549316,0.0112732,
5328,-0.0170898,0.0112793,
5330,0.00366211,0.0111145,
5332,0.000610352,0.0106995,
5334,0.00427246,0.0105835,
5336,-0.00244141,0.0105713,
5338,-0.0213623,0.0107483,
5340,0.00976563,0.0106445,
5342,-0.00549316,0.0105652,
5344,-0.0146484,0.0102417,
5346,-0.0115967,0.0102112,
5348,0.00671387,0.0102295,
5350,-0.00854492,0.0102234,
5352,0,0.0102112,
5354,0.00976563,0.0098938,
5356,-0.00854492,0.00997314,
5358,-0.00183105,0.00992432,
5360,-0.0238037,0.0100464,
5362,-0.00915527,0.0101135,
5364,-0.00305176,0.00994263,
5366,-0.00854492,0.00999146,
5368,-0.0183105,0.0101379,
5370,-0.0195313,0.0100342,
5372,-0.00183105,0.00997925,
5374,0.0213623,0.0101257,
5376,-0.00793457,0.0100159,
5378,-0.00915527,0.00999146,
5380,-0.0183105,0.010083,
5382,-0.00305176,0.00993652,
5384,-0.0140381,0.00997925,
5386,-0.00732422,0.00995483,
5388,0.0012207,0.0098938,
5390,-0.00427246,0.00983276,
5392,-0.0244141,0.00995483,
5394,0.0140381,0.00994873,
5396,0.0366211,0.0102112,
5398,-0.0360107,0.0104797,
5400,0.0012207,0.0103577,
5402,0.0354004,0.0105591,
5404,-0.0164795,0.0106323,
5406,-0.020752,0.0106812,
5408,-0.0109863,0.0105408,
5410,0.0146484,0.0106689,
5412,0.0109863,0.0107788,
5414,-0.0372314,0.0109314,
5416,-0.010376,0.0110046,
5418,0.0177002,0.0111206,
5420,-0.0109863,0.0110046,
5422,-0.0280762,0.0112427,
5424,-0.0012207,0.0109985,
5426,0.0109863,0.0110718,
5428,0.00488281,0.0110962,
5430,-0.00732422,0.011145,
5432,-0.0286865,0.011377,
5434,-0.0170898,0.0113953,
5436,-0.00183105,0.0113403,
5438,-0.0115967,0.0114197,
5440,-0.0183105,0.0115784,
5442,-0.0109863,0.0115906,
5444,0.00305176,0.0114197,
5446,0.00305176,0.0113953,
5448,-0.0256348,0.0115906,
5450,0.00732422,0.0116333,
5452,0.0213623,0.0117249,
5454,0.00427246,0.0116638,
5456,-0.00427246,0.0115845,
5458,-0.0231934,0.0117432,
5460,0,0.011731,
5462,0.0268555,0.0119263,
5464,-0.03479,0.0122192,
5466,0.00427246,0.0121338,
5468,-0.00305176,0.0121582,
5470,-0.00183105,0.0121277,
5472,0.00183105,0.0120483,
5474,-0.00732422,0.0120667,
5476,-0.0201416,0.0122375,
5478,0,0.0121826,
5480,0.00488281,0.0122131,
5482,0.00976563,0.0122681,
5484,-0.020752,0.0122314,
5486,-0.00427246,0.0121765,
5488,0.00183105,0.0121582,
5490,0.0146484,0.0121338,
5492,-0.012207,0.0122498,
5494,-0.00549316,0.0120605,
5496,-0.00915527,0.0119202,
5498,0.010376,0.0120056,
5500,-0.00488281,0.0119934,
5502,-0.0115967,0.0119202,
5504,-0.00244141,0.0119141,
5506,-0.010376,0.0119995,
5508,-0.020752,0.0117493,
5510,-0.00854492,0.0116699,
5512,-0.0115967,0.0115479,
5514,-0.012207,0.0116211,
5516,-0.0140381,0.0116333,
5518,0,0.0115906,
5520,0.00854492,0.0113403,
5522,-0.0158691,0.0114868,
5524,0.0012207,0.0114929,
5526,0.0189209,0.0116272,
5528,-0.00610352,0.0115173,
5530,0.010376,0.0115845,
5532,-0.0360107,0.0119385,
5534,0.0146484,0.0120422,
5536,0.00793457,0.0120972,
5538,-0.00366211,0.0119202,
5540,-0.00915527,0.0119141,
5542,-0.00671387,0.0119263,
5544,-0.012207,0.0119019,
5546,-0.00183105,0.0118042,
5548,-0.0128174,0.0118652,
5550,-0.00854492,0.0118652,
5552,-0.022583,0.0120911,
5554,-0.0238037,0.0122314,
5556,-0.00427246,0.0121887,
5558,-0.0231934,0.0124023,
5560,-0.00854492,0.0122498,
5562,-0.00183105,0.0121765,
5564,0.00427246,0.0121887,
5566,0.0170898,0.0122742,
5568,-0.0213623,0.0123047,
5570,-0.0146484,0.0122559,
5572,0.00915527,0.0123291,
5574,-0.00854492,0.0122009,
5576,-0.0177002,0.0122986,
5578,-0.0274658,0.0124817,
5580,-0.0128174,0.0124268,
5582,-0.010376,0.0125,
5584,-0.00854492,0.0124451,
5586,-0.0164795,0.0125366,
5588,-0.0146484,0.0126709,
5590,-0.00793457,0.0127075,
5592,-0.00183105,0.0124817,
5594,-0.00732422,0.0124146,
5596,0.012207,0.0121704,
5598,0.0109863,0.0119202,
5600,-0.0262451,0.0121704,
5602,0.00732422,0.0118896,
5604,0.00488281,0.0117737,
5606,-0.00976563,0.0116638,
5608,-0.010376,0.0116577,
5610,-0.0158691,0.0116699,
5612,-0.0183105,0.0117432,
5614,-0.00854492,0.0114563,
5616,0,0.0113525,
5618,-0.0323486,0.011499,
5620,0,0.0113892,
5622,0.00793457,0.0111877,
5624,0.00183105,0.0111938,
5626,-0.00976563,0.0111816,
5628,-0.00671387,0.0112,
5630,-0.00793457,0.0112061,
5632,0.0189209,0.0111084,
5634,-0.0311279,0.0112488,
5636,0.0152588,0.0113831,
5638,-0.0250244,0.0115173,
5640,0.0012207,0.0113464,
5642,-0.0012207,0.0112488,
5644,-0.00915527,0.0113098,
5646,-0.0231934,0.0115112,
5648,-0.0189209,0.0114441,
5650,0.00549316,0.0114258,
5652,0.00427246,0.0112549,
5654,-0.022583,0.011438,
5656,0.00732422,0.0114685,
5658,-0.010376,0.0113403,
5660,0.00854492,0.0114258,
5662,0.0335693,0.0114929,
5664,-0.0341797,0.0114868,
5666,-0.00915527,0.0115356,
5668,0.0152588,0.0116577,
5670,-0.0183105,0.0118225,
5672,-0.00244141,0.0118286,
5674,-0.0244141,0.0119995,
5676,-0.00732422,0.0118713,
5678,-0.0183105,0.0120544,
5680,-0.0158691,0.0121643,
5682,0.0012207,0.0120789,
5684,-0.0109863,0.0119812,
5686,-0.022583,0.0121643,
5688,0.00366211,0.0121826,
5690,-0.0134277,0.0121704,
5692,0.00366211,0.012085,
5694,0.0128174,0.0121582,
5696,-0.0115967,0.0121826,
5698,-0.0201416,0.0122803,
5700,-0.0012207,0.0122437,
5702,0.0146484,0.0122742,
5704,-0.00366211,0.0122864,
5706,0.00244141,0.012207,
5708,0.00427246,0.0120422,
5710,-0.032959,0.0122864,
5712,0.0109863,0.0122803,
5714,0.0195313,0.0123535,
5716,-0.0140381,0.0123535,
5718,-0.0152588,0.0125061,
5720,-0.0292969,0.0127136,
5722,0.0152588,0.0127075,
5724,-0.0158691,0.012854,
5726,-0.0164795,0.0128296,
5728,-0.00488281,0.0128174,
5730,-0.00732422,0.0127869,
5732,0.00183105,0.0124451,
5734,-0.0262451,0.012561,
5736,0.00610352,0.0125427,
5738,-0.000610352,0.0125122,
5740,-0.000610352,0.0124268,
5742,0.000610352,0.0123657,
5744,0.0158691,0.0124023,
5746,-0.00671387,0.0124512,
5748,0.00305176,0.0123535,
5750,-0.0292969,0.012561,
5752,-0.00671387,0.0124023,
5754,0.00427246,0.012207,
5756,-0.00366211,0.0122009,
5758,-0.0311279,0.0122803,
5760,-0.00793457,0.0122742,
5762,0.00549316,0.0123108,
5764,-0.0305176,0.0125732,
5766,0.00610352,0.0124634,
5768,0.020752,0.0124573,
5770,-0.00915527,0.0124023,
5772,-0.00793457,0.0123901,
5774,-0.00305176,0.0123352,
5776,-0.0244141,0.0124023,
5778,-0.0115967,0.0122437,
5780,-0.00183105,0.0121338,
5782,-0.0164795,0.0121948,
5784,-0.0189209,0.0122986,
5786,0.00793457,0.0122131,
5788,-0.0146484,0.0122131,
5790,-0.00244141,0.0121582,
5792,0.00610352,0.0122009,
5794,-0.00183105,0.012146,
5796,0.0012207,0.0120361,
5798,-0.00915527,0.0120178,
5800,0.0109863,0.0118652,
5802,-0.0195313,0.0119873,
5804,-0.0177002,0.0121155,
5806,0.0286865,0.0123047,
5808,0.00793457,0.0122803,
5810,0.00915527,0.0122131,
5812,-0.0323486,0.0123535,
5814,-0.010376,0.0123718,
5816,0.022583,0.0125977,
5818,0.0115967,0.0123901,
5820,-0.0183105,0.0125732,
5822,-0.00793457,0.0125732,
5824,-0.0140381,0.0126953,
5826,-0.00366211,0.0126343,
5828,-0.00793457,0.0126465,
5830,-0.0128174,0.0126953,
5832,0.00244141,0.0125305,
5834,0.00305176,0.0122498,
5836,-0.00366211,0.0121338,
5838,-0.0256348,0.0121399,
5840,0.0183105,0.0123108,
5842,-0.0012207,0.0123108,
5844,-0.00366211,0.0122559,
5846,-0.00793457,0.0121033,
5848,-0.0189209,0.0121033,
5850,-0.00793457,0.0121277,
5852,-0.0128174,0.0122131,
5854,-0.0164795,0.0121521,
5856,-0.0262451,0.0123413,
5858,-0.00793457,0.0123169,
5860,0.00671387,0.0122986,
5862,-0.0201416,0.0121643,
5864,-0.00915527,0.0119141,
5866,-0.00183105,0.0118408,
5868,0.00305176,0.0117188,
5870,0.00732422,0.0116089,
5872,-0.0134277,0.0117188,
5874,-0.00549316,0.0115295,
5876,0.00854492,0.0115417,
5878,0.00183105,0.011377,
5880,-0.00488281,0.0112671,
5882,-0.0152588,0.0114075,
5884,-0.00549316,0.0113525,
5886,-0.00366211,0.0111633,
5888,-0.0305176,0.0114319,
5890,-0.00915527,0.0113892,
5892,-0.00915527,0.0114441,
5894,-0.0134277,0.0114502,
5896,-0.00915527,0.0114258,
5898,-0.00976563,0.011322,
5900,-0.0012207,0.011322,
5902,-0.00305176,0.0112061,
5904,-0.00610352,0.0112305,
5906,-0.0128174,0.0113342,
5908,-0.00305176,0.011322,
5910,-0.00671387,0.0110596,
5912,-0.00793457,0.0110291,
5914,-0.0134277,0.010968,
5916,0.00366211,0.0108643,
5918,-0.00671387,0.0107788,
5920,-0.00549316,0.0105408,
5922,0.00366211,0.0104248,
5924,-0.00183105,0.0102844,
5926,-0.00549316,0.0101746,
5928,-0.00915527,0.0102173,
5930,0.00732422,0.0102173,
5932,-0.00305176,0.0102295,
5934,-0.0158691,0.0101257,
5936,0.0012207,0.0100769,
5938,-0.00915527,0.0101624,
5940,-0.00366211,0.0101929,
5942,-0.0219727,0.0104065,
5944,0.00610352,0.0103088,
5946,-0.00732422,0.0103149,
5948,-0.0262451,0.0105469,
5950,0.00366211,0.0102905,
5952,-0.00183105,0.0102417,
5954,-0.00732422,0.0102722,
5956,-0.00427246,0.0102783,
5958,-0.0189209,0.0101563,
5960,-0.00244141,0.0101013,
5962,-0.010376,0.0101501,
5964,-0.0292969,0.0101379,
5966,-0.010376,0.0101807,
5968,-0.0244141,0.0102173,
5970,-0.00488281,0.0101746,
5972,-0.0115967,0.0102112,
5974,0.0183105,0.0103638,
5976,0.0244141,0.0103638,
5978,-0.00366211,0.0102844,
5980,0.00732422,0.0103394,
5982,0.0231934,0.0104065,
5984,-0.000610352,0.0102234,
5986,-0.00305176,0.0101746,
5988,-0.020752,0.0102356,
5990,0.00488281,0.01026,
5992,-0.0146484,0.0103455,
5994,-0.0360107,0.0106873,
5996,-0.00793457,0.0107544,
5998,-0.0140381,0.0108032,
6000,0.00549316,0.0107483,
6002,-0.00305176,0.0105835,
6004,-0.0109863,0.0105164,
6006,-0.00793457,0.0103088,
6008,-0.0366211,0.0105957,
6010,-0.0286865,0.010791,
6012,-0.010376,0.0105713,
6014,-0.0280762,0.0107483,
6016,0,0.0105225,
6018,-0.0183105,0.0105896,
6020,0.0109863,0.0105164,
6022,-0.0134277,0.0105713,
6024,-0.00366211,0.0104675,
6026,0.0164795,0.0105957,
6028,0.022583,0.0107422,
6030,-0.00976563,0.0107117,
6032,-0.00915527,0.0107788,
6034,0.0012207,0.0107605,
6036,0.0366211,0.0110901,
6038,-0.0244141,0.0110779,
6040,-0.022583,0.0111206,
6042,0.0134277,0.0112427,
6044,-0.00976563,0.0113037,
6046,-0.00305176,0.0112549,
6048,-0.0109863,0.0111755,
6050,0,0.0110962,
6052,-0.0238037,0.0112061,
6054,-0.0231934,0.0112732,
6056,0.00976563,0.0111084,
6058,0.00854492,0.0111145,
6060,-0.0305176,0.0113525,
6062,0.00549316,0.0112061,
6064,-0.0378418,0.0114929,
6066,0.00244141,0.011499,
6068,-0.00610352,0.0115295,
6070,-0.0341797,0.0117981,
6072,-0.0354004,0.0120178,
6074,-0.0390625,0.0123535,
6076,-0.0335693,0.0126038,
6078,-0.0231934,0.0128174,
6080,-0.0280762,0.0130493,
6082,-0.043335,0.0133301,
6084,-0.0445557,0.0137207,
6086,-0.0274658,0.0139587,
6088,-0.0189209,0.0138428,
6090,-0.00976563,0.0138489,
6092,-0.00976563,0.013855,
6094,0.0012207,0.0137329,
6096,0.00610352,0.0137024,
6098,0.00976563,0.0137024,
6100,0.00671387,0.0137573,
6102,0.010376,0.0138306,
6104,-0.000610352,0.0137756,
6106,-0.0189209,0.0138367,
6108,0.00244141,0.0138306,
6110,-0.00549316,0.0138184,
6112,-0.0189209,0.0139282,
6114,-0.0109863,0.0139038,
6116,-0.00732422,0.0139404,
6118,-0.0109863,0.0139832,
6120,-0.0390625,0.0143188,
6122,0.00244141,0.0143066,
6124,0.00183105,0.0143066,
6126,-0.0335693,0.0145874,
6128,-0.0177002,0.0146729,
6130,-0.0518799,0.0151184,
6132,-0.00610352,0.0151489,
6134,-0.0268555,0.0152588,
6136,-0.032959,0.0155762,
6138,-0.0415039,0.0158997,
6140,-0.0256348,0.0161194,
6142,-0.0262451,0.0161621,
6144,-0.0292969,0.016394,
6146,-0.0268555,0.0165894,
6148,-0.0256348,0.0165833,
6150,-0.0317383,0.016864,
6152,-0.0268555,0.0171143,
6154,-0.0115967,0.017157,
6156,-0.00976563,0.0172119,
6158,0.0012207,0.0170349,
6160,0.00793457,0.0170898,
6162,-0.0250244,0.0172363,
6164,-0.00671387,0.0170105,
6166,0.0219727,0.0171265,
6168,-0.0109863,0.0169922,
6170,-0.00854492,0.0170288,
6172,-0.0115967,0.0170288,
6174,-0.020752,0.0170532,
6176,-0.0219727,0.0170288,
6178,-0.0164795,0.017157,
6180,-0.0128174,0.0172119,
6182,-0.0408936,0.0173889,
6184,-0.0140381,0.0175232,
6186,-0.010376,0.0175964,
6188,-0.012207,0.017511,
6190,-0.022583,0.017688,
6192,-0.0164795,0.0177063,
6194,-0.010376,0.01745,
6196,0.0012207,0.0173828,
6198,-0.0146484,0.0173889,
6200,-0.00976563,0.0174316,
6202,-0.0189209,0.0175903,
6204,-0.010376,0.0175842,
6206,-0.00427246,0.0175476,
6208,-0.00793457,0.0172607,
6210,-0.010376,0.0170776,
6212,-0.00732422,0.0170471,
6214,-0.0195313,0.0169617,
6216,0.00732422,0.0170349,
6218,0.00427246,0.0168945,
6220,-0.0109863,0.0168945,
6222,0.00793457,0.0168396,
6224,-0.0158691,0.0169617,
6226,0.0152588,0.0169495,
6228,-0.0170898,0.0168945,
6230,-0.0323486,0.0171204,
6232,-0.0115967,0.0171448,
6234,-0.00610352,0.0171936,
6236,-0.0115967,0.0169434,
6238,-0.0317383,0.0170166,
6240,-0.0335693,0.0171265,
6242,-0.00793457,0.0170715,
6244,-0.0146484,0.0171204,
6246,-0.00793457,0.0171692,
6248,-0.0183105,0.0172424,
6250,-0.0152588,0.017395,
6252,-0.00488281,0.0172058,
6254,-0.00671387,0.017041,
6256,-0.00488281,0.0169922,
6258,-0.0244141,0.0171509,
6260,-0.00305176,0.0168762,
6262,-0.00183105,0.0168396,
6264,-0.0219727,0.0166809,
6266,-0.0109863,0.0167664,
6268,-0.00793457,0.0167847,
6270,-0.00671387,0.01651,
6272,-0.00854492,0.0162415,
6274,-0.0115967,0.0159668,
6276,-0.0195313,0.0158264,
6278,-0.00305176,0.015625,
6280,-0.00183105,0.0153625,
6282,-0.0115967,0.0150452,
6284,-0.020752,0.0148071,
6286,-0.010376,0.0146362,
6288,-0.00854492,0.0145325,
6290,-0.00183105,0.0144531,
6292,0.00244141,0.0143799,
6294,-0.0115967,0.0144836,
6296,-0.0109863,0.0145325,
6298,-0.00549316,0.0144897,
6300,-0.00549316,0.0144775,
6302,-0.00976563,0.0144714,
6304,-0.0189209,0.0146545,
6306,-0.00976563,0.014563,
6308,-0.0183105,0.0147217,
6310,-0.00732422,0.01474,
6312,-0.0128174,0.014679,
6314,-0.00915527,0.0146606,
6316,-0.0134277,0.0147217,
6318,-0.00366211,0.0146484,
6320,-0.00427246,0.0143005,
6322,-0.0183105,0.0144592,
6324,-0.012207,0.014563,
6326,-0.0134277,0.0143616,
6328,0.000610352,0.0141907,
6330,0.00244141,0.0136963,
6332,0,0.0136353,
6334,-0.0231934,0.0135986,
6336,-0.00671387,0.0133362,
6338,-0.00366211,0.0129578,
6340,0.00915527,0.012793,
6342,-0.00549316,0.0125854,
6344,-0.0128174,0.0124207,
6346,-0.022583,0.0123779,
6348,-0.0183105,0.0123047,
6350,-0.00488281,0.0120361,
6352,-0.0109863,0.0118774,
6354,-0.0158691,0.0119202,
6356,-0.00854492,0.011908,
6358,-0.0152588,0.0120483,
6360,-0.00549316,0.0120239,
6362,-0.00610352,0.0118347,
6364,-0.010376,0.0118713,
6366,-0.00610352,0.0117126,
6368,-0.00244141,0.0116272,
6370,-0.00976563,0.0116394,
6372,-0.0109863,0.0116333,
6374,-0.0109863,0.0115356,
6376,-0.00671387,0.0113831,
6378,-0.0115967,0.0113342,
6380,-0.0115967,0.011322,
6382,-0.0177002,0.0110901,
6384,-0.00427246,0.0109924,
6386,0.00366211,0.0109253,
6388,-0.00976563,0.0109009,
6390,-0.0256348,0.0109314,
6392,-0.010376,0.0108704,
6394,0.00305176,0.0107971,
6396,-0.00427246,0.0108276,
6398,0.00854492,0.0107666,
6400,-0.00244141,0.0106934,
6402,-0.0286865,0.010791,
6404,-0.00671387,0.0107544,
6406,0.0213623,0.0109253,
6408,-0.00549316,0.0109009,
6410,-0.0195313,0.0109924,
6412,-0.0128174,0.0110474,
6414,-0.00427246,0.0108948,
6416,-0.00244141,0.0108459,
6418,-0.020752,0.0110107,
6420,-0.0134277,0.0110352,
6422,0.00183105,0.0109741,
6424,-0.0177002,0.0109924,
6426,-0.00915527,0.0109314,
6428,-0.00610352,0.0108215,
6430,-0.00610352,0.0105591,
6432,-0.0213623,0.0106567,
6434,-0.00488281,0.0106445,
6436,-0.00915527,0.0106201,
6438,-0.00976563,0.0104004,
6440,-0.00671387,0.0101318,
6442,-0.0134277,0.0101868,
6444,-0.00976563,0.0101379,
6446,-0.00305176,0.0100891,
6448,-0.0134277,0.0100403,
6450,-0.0109863,0.00999756,
6452,-0.000610352,0.00995483,
6454,-0.00671387,0.00995483,
6456,-0.00732422,0.00997925,
6458,-0.0115967,0.00985107,
6460,-0.00671387,0.0098877,
6462,0.00244141,0.0098938,
6464,0.00549316,0.009729,
6466,-0.0250244,0.00986938,
6468,-0.0134277,0.00992432,
6470,0.00976563,0.00995483,
6472,-0.00671387,0.00993652,
6474,-0.012207,0.00994263,
6476,-0.0140381,0.0098877,
6478,0.00183105,0.00987549,
6480,0.00488281,0.00990601,
6482,0.00427246,0.00983276,
6484,-0.0134277,0.00975952,
6486,-0.0109863,0.00976563,
6488,-0.00488281,0.009729,
6490,-0.00366211,0.00974731,
6492,-0.010376,0.00982666,
6494,-0.00793457,0.00979004,
6496,-0.00854492,0.00976563,
6498,-0.0012207,0.0097229,
6500,-0.0231934,0.0098999,
6502,0.0134277,0.00993652,
6504,-0.00610352,0.00980835,
6506,-0.0164795,0.00987549,
6508,-0.00244141,0.0097168,
6510,-0.0274658,0.00991821,
6512,-0.00854492,0.00987549,
6514,-0.00976563,0.00988159,
6516,-0.0134277,0.00988159,
6518,-0.0158691,0.0100037,
6520,-0.00244141,0.00998535,
6522,-0.00915527,0.0098938,
6524,-0.00244141,0.00979614,
6526,-0.00427246,0.00970459,
6528,-0.00427246,0.00974121,
6530,-0.0012207,0.009729,
6532,-0.00244141,0.00975342,
6534,-0.00976563,0.00961914,
6536,-0.00915527,0.00964355,
6538,-0.0012207,0.00961914,
6540,-0.00183105,0.0095459,
6542,-0.00854492,0.00957642,
6544,0.000610352,0.00945435,
6546,0.00427246,0.00927124,
6548,-0.00976563,0.00918579,
6550,-0.00183105,0.00915527,
6552,-0.00305176,0.00907593,
6554,-0.0012207,0.00892944,
6556,-0.0012207,0.0088562,
6558,-0.00915527,0.00879517,
6560,-0.00366211,0.00877686,
6562,-0.00610352,0.00877686,
6564,-0.00610352,0.00873413,
6566,0.0012207,0.0086853,
6568,-0.00244141,0.0086853,
6570,-0.00854492,0.0086731,
6572,-0.000610352,0.00856934,
6574,-0.00549316,0.0085144,
6576,-0.00244141,0.00847168,
6578,-0.00427246,0.00839844,
6580,-0.00610352,0.00834351,
6582,-0.00366211,0.00820313,
6584,-0.00244141,0.00818481,
6586,-0.00915527,0.00823975,
6588,0.00366211,0.00817871,
6590,-0.00305176,0.00795288,
6592,-0.0115967,0.00796509,
6594,0.000610352,0.00794067,
6596,0.00671387,0.00796509,
6598,-0.0134277,0.00801392,
6600,-0.00915527,0.00808105,
6602,-0.000610352,0.00780029,
6604,-0.00427246,0.00777588,
6606,-0.012207,0.00768433,
6608,-0.00915527,0.00772095,
6610,-0.00976563,0.00762329,
6612,-0.00793457,0.00757446,
6614,-0.0183105,0.00771484,
6616,-0.00305176,0.00772095,
6618,-0.00854492,0.00759888,
6620,-0.00793457,0.00754395,
6622,0.0012207,0.00753784,
6624,-0.00427246,0.00740356,
6626,-0.00366211,0.00734863,
6628,-0.0128174,0.00741577,
6630,-0.00671387,0.00742187,
6632,0.00671387,0.00727539,
6634,-0.00793457,0.00730591,
6636,-0.00549316,0.00726929,
6638,-0.0134277,0.00730591,
6640,0.0012207,0.00725098,
6642,-0.0012207,0.00712891,
6644,-0.012207,0.00715332,
6646,-0.00427246,0.00716553,
6648,-0.00427246,0.00707397,
6650,-0.00793457,0.00704346,
6652,0.00488281,0.00708618,
6654,0.00183105,0.00703735,
6656,0.00671387,0.00703125,
6658,-0.00488281,0.00696411,
6660,-0.012207,0.00701904,
6662,-0.000610352,0.00700073,
6664,0.00183105,0.00696411,
6666,-0.00366211,0.00675049,
6668,-0.0128174,0.00674438,
6670,-0.0140381,0.00678711,
6672,-0.0183105,0.00690308,
6674,-0.00244141,0.00680542,
6676,0.00305176,0.00669556,
6678,-0.0158691,0.00683594,
6680,-0.00610352,0.00684814,
6682,0,0.00680542,
6684,-0.012207,0.00679321,
6686,-0.012207,0.00680542,
6688,-0.00549316,0.00681152,
6690,-0.00793457,0.00685425,
6692,-0.00610352,0.00681152,
6694,-0.00427246,0.0067749,
6696,0.00305176,0.00671997,
6698,-0.00854492,0.00679321,
6700,-0.0128174,0.00668945,
6702,-0.00244141,0.00657959,
6704,-0.000610352,0.00652466,
6706,-0.00305176,0.00639038,
6708,-0.00915527,0.00645752,
6710,-0.00305176,0.00621338,
6712,-0.00366211,0.00616455,
6714,0.00488281,0.00611572,
6716,-0.00244141,0.00600586,
6718,0.00427246,0.00588989,
6720,-0.0012207,0.00587769,
6722,-0.00366211,0.00582275,
6724,-0.00366211,0.00583496,
6726,-0.000610352,0.00579834,
6728,-0.00488281,0.00580444,
6730,0.00366211,0.00582886,
6732,-0.0128174,0.00593262,
6734,-0.0268555,0.00610352,
6736,0,0.00601196,
6738,0,0.00599976,
6740,-0.00671387,0.00604858,
6742,-0.020752,0.00617065,
6744,-0.0115967,0.00628052,
6746,-0.00732422,0.00631104,
6748,-0.00854492,0.00629883,
6750,-0.00610352,0.00634155,
6752,-0.00915527,0.00640259,
6754,-0.00549316,0.00644531,
6756,0,0.00643311,
6758,-0.0109863,0.00645142,
6760,-0.0140381,0.00655518,
6762,0.00854492,0.00657959,
6764,-0.00183105,0.00653687,
6766,-0.00427246,0.00656738,
6768,-0.0201416,0.00674438,
6770,0.00915527,0.00675049,
6772,-0.000610352,0.00675049,
6774,-0.00366211,0.00673218,
6776,-0.00976563,0.00680542,
6778,-0.00854492,0.00684814,
6780,-0.0170898,0.00695801,
6782,-0.00244141,0.0069458,
6784,-0.00183105,0.0069397,
6786,-0.00915527,0.0069397,
6788,-0.012207,0.00702515,
6790,-0.00793457,0.00707397,
6792,-0.00183105,0.00697632,
6794,0.00732422,0.00704346,
6796,-0.0115967,0.00709229,
6798,-0.00976563,0.00705566,
6800,0.000610352,0.00697021,
6802,-0.00610352,0.00702515,
6804,-0.00793457,0.00706177,
6806,0.000610352,0.0069458,
6808,-0.0012207,0.00686646,
6810,0.00488281,0.00681763,
6812,-0.00366211,0.0067749,
6814,-0.010376,0.00669556,
6816,-0.00183105,0.00668335,
6818,0.00366211,0.00663452,
6820,-0.0109863,0.00666504,
6822,-0.0164795,0.00681763,
6824,-0.0115967,0.00689087,
6826,-0.00915527,0.0069458,
6828,-0.00854492,0.00690308,
6830,-0.00732422,0.00690918,
6832,-0.00793457,0.00692139,
6834,-0.00549316,0.00689697,
6836,0.00488281,0.00689087,
6838,0.00549316,0.00681152,
6840,-0.00671387,0.00686646,
6842,-0.00671387,0.00692139,
6844,-0.00549316,0.00685425,
6846,0.00549316,0.00686646,
6848,-0.00427246,0.00686646,
6850,-0.0195313,0.00698242,
6852,-0.0177002,0.0071106,
6854,-0.00488281,0.00714111,
6856,-0.00671387,0.00714111,
6858,-0.0158691,0.00725098,
6860,-0.00854492,0.00721436,
6862,0,0.00720825,
6864,-0.00854492,0.00727539,
6866,0.00305176,0.00726929,
6868,-0.00488281,0.00718994,
6870,-0.00427246,0.00709229,
6872,0.00305176,0.0069397,
6874,-0.012207,0.00703735,
6876,0,0.00700684,
6878,-0.00488281,0.00689697,
6880,-0.00610352,0.00689697,
6882,-0.012207,0.00701904,
6884,-0.00549316,0.0069519,
6886,-0.00915527,0.00692139,
6888,-0.00610352,0.00692749,
6890,-0.00915527,0.0069397,
6892,-0.00549316,0.00693359,
6894,-0.012207,0.00701294,
6896,0.00183105,0.00700073,
6898,-0.00854492,0.00700073,
6900,-0.00793457,0.0069519,
6902,-0.00549316,0.00698242,
6904,-0.00915527,0.00706787,
6906,-0.00183105,0.00705566,
6908,-0.00915527,0.00705566,
6910,-0.00671387,0.00709229,
6912,-0.00305176,0.00708618,
6914,-0.00732422,0.0071106,
6916,-0.000610352,0.00709229,
6918,-0.00488281,0.00709839,
6920,-0.000610352,0.00709229,
6922,0,0.00705566,
6924,-0.00610352,0.00708008,
6926,0.00610352,0.00713501,
6928,0.0109863,0.00719604,
6930,-0.0238037,0.00739746,
6932,-0.00549316,0.00732422,
6934,0.00244141,0.00708008,
6936,0.000610352,0.00708618,
6938,-0.00610352,0.00714722,
6940,-0.00732422,0.00715332,
6942,-0.0134277,0.00708008,
6944,-0.00244141,0.00698853,
6946,-0.00671387,0.00698242,
6948,0.00244141,0.00692139,
6950,-0.00488281,0.00690918,
6952,-0.0280762,0.00709839,
6954,0,0.00704346,
6956,0.0109863,0.00715332,
6958,-0.00427246,0.00708618,
6960,-0.010376,0.00704956,
6962,-0.0158691,0.0071228,
6964,0.00183105,0.0071228,
6966,-0.000610352,0.00708618,
6968,-0.00366211,0.00692139,
6970,-0.00305176,0.00686035,
6972,0,0.00685425,
6974,-0.00732422,0.00689087,
6976,0.00366211,0.00682983,
6978,-0.00976563,0.00684204,
6980,0.00549316,0.00672607,
6982,0.00183105,0.00671997,
6984,-0.0128174,0.00682983,
6986,-0.0140381,0.00687866,
6988,-0.0128174,0.00688477,
6990,-0.00671387,0.00687256,
6992,-0.0164795,0.00701904,
6994,-0.0012207,0.00695801,
6996,0.00488281,0.00689087,
6998,-0.00183105,0.00681152,
7000,-0.0219727,0.00702515,
7002,-0.00427246,0.00700684,
7004,-0.0012207,0.0069397,
7006,0.000610352,0.0069397,
7008,-0.010376,0.00703125,
7010,-0.0128174,0.0071106,
7012,-0.00915527,0.00716553,
7014,-0.0170898,0.00723267,
7016,0.0012207,0.00722656,
7018,-0.000610352,0.00719604,
7020,0.000610352,0.00709229,
7022,-0.00793457,0.00700684,
7024,-0.00793457,0.00697021,
7026,0.00793457,0.00695801,
7028,-0.00671387,0.0069397,
7030,-0.00793457,0.0069458,
7032,-0.00366211,0.00690308,
7034,-0.00976563,0.0069458,
7036,-0.00366211,0.00693359,
7038,-0.010376,0.00698242,
7040,-0.00305176,0.0069458,
7042,-0.00793457,0.00695801,
7044,-0.00244141,0.00692749,
7046,0.00854492,0.00695801,
7048,-0.0128174,0.00704346,
7050,0.00732422,0.00692139,
7052,0.00305176,0.0067749,
7054,-0.00305176,0.00675659,
7056,-0.00427246,0.00673218,
7058,-0.00732422,0.00664673,
7060,-0.00244141,0.00658569,
7062,-0.00915527,0.00667725,
7064,-0.0134277,0.00672607,
7066,-0.000610352,0.00670166,
7068,0.00427246,0.00669556,
7070,-0.0146484,0.00679932,
7072,-0.00549316,0.00682373,
7074,-0.00183105,0.00671997,
7076,0.00488281,0.0067688,
7078,-0.00976563,0.00681763,
7080,-0.0012207,0.0067688,
7082,-0.0012207,0.00665894,
7084,0.0158691,0.0067627,
7086,0.00183105,0.00668945,
7088,-0.0158691,0.00678711,
7090,-0.00244141,0.00671997,
7092,-0.00366211,0.00670166,
7094,-0.00366211,0.00661621,
7096,-0.010376,0.00670166,
7098,-0.0164795,0.00678101,
7100,-0.0140381,0.00684204,
7102,-0.0189209,0.00697632,
7104,-0.00793457,0.00696411,
7106,-0.00427246,0.00698853,
7108,-0.0115967,0.00701294,
7110,-0.0140381,0.00708618,
7112,-0.00366211,0.00709229,
7114,-0.0152588,0.00717163,
7116,-0.00915527,0.00725708,
7118,-0.00793457,0.0072876,
7120,-0.0134277,0.00741577,
7122,-0.00671387,0.00748291,
7124,-0.00610352,0.00748291,
7126,-0.00671387,0.00748901,
7128,-0.00854492,0.0074646,
7130,-0.0109863,0.00733643,
7132,-0.0012207,0.0072937,
7134,-0.00610352,0.00733032,
7136,0.000610352,0.00733032,
7138,-0.00854492,0.00735474,
7140,-0.0201416,0.00748291,
7142,-0.00671387,0.00741577,
7144,-0.00366211,0.00742798,
7146,-0.00610352,0.00742187,
7148,-0.0128174,0.00752563,
7150,-0.0109863,0.00758667,
7152,-0.0183105,0.00748901,
7154,-0.00610352,0.00755005,
7156,-0.00854492,0.00752563,
7158,-0.0115967,0.00759888,
7160,0.00549316,0.00755005,
7162,-0.00549316,0.00744629,
7164,-0.0195313,0.00762329,
7166,0.0012207,0.00762939,
7168,-0.00366211,0.00762939,
7170,-0.00610352,0.00765991,
7172,-0.00732422,0.00773315,
7174,-0.0134277,0.00779419,
7176,-0.00488281,0.0078064,
7178,-0.00610352,0.00776978,
7180,0.000610352,0.00772095,
7182,-0.0244141,0.00794678,
7184,-0.00671387,0.00788574,
7186,0.00610352,0.0078064,
7188,-0.00915527,0.00776978,
7190,-0.00671387,0.00776978,
7192,-0.0219727,0.00782471,
7194,-0.00488281,0.00786133,
7196,0.00183105,0.00783081,
7198,-0.00915527,0.00790405,
7200,-0.0140381,0.00782471,
7202,-0.00976563,0.00787964,
7204,-0.012207,0.0079895,
7206,-0.000610352,0.0079895,
7208,-0.00488281,0.00793457,
7210,-0.00488281,0.00785522,
7212,-0.00854492,0.00784912,
7214,-0.00976563,0.00777588,
7216,0.00427246,0.0078064,
7218,-0.0109863,0.00791016,
7220,-0.00915527,0.00799561,
7222,-0.00183105,0.00793457,
7224,-0.00366211,0.00789185,
7226,-0.00976563,0.00791016,
7228,-0.00976563,0.00794067,
7230,-0.00549316,0.00791626,
7232,-0.00488281,0.00792847,
7234,-0.00427246,0.00787354,
7236,-0.00610352,0.00789795,
7238,-0.00793457,0.00787354,
7240,-0.00976563,0.00794067,
7242,-0.00610352,0.00792236,
7244,-0.00427246,0.00794067,
7246,-0.000610352,0.00786133,
7248,-0.0109863,0.00784302,
7250,-0.00183105,0.00778809,
7252,0.00854492,0.00784302,
7254,-0.0189209,0.00800171,
7256,-0.000610352,0.00796509,
7258,-0.0109863,0.00800171,
7260,-0.0012207,0.0079895,
7262,-0.00427246,0.00794067,
7264,-0.0183105,0.0079895,
7266,-0.00671387,0.00805054,
7268,-0.00854492,0.00809326,
7270,-0.00671387,0.00801392,
7272,-0.00305176,0.0079895,
7274,-0.010376,0.00807495,
7276,-0.00732422,0.00809937,
7278,-0.00915527,0.00809326,
7280,-0.00549316,0.00813599,
7282,-0.00732422,0.00819702,
7284,-0.00244141,0.00806274,
7286,-0.00488281,0.00809326,
7288,-0.00427246,0.00797729,
7290,0.00244141,0.00797729,
7292,-0.0152588,0.00809326,
7294,-0.00427246,0.00809937,
7296,-0.00366211,0.00803223,
7298,-0.00244141,0.00789185,
7300,-0.00793457,0.00783081,
7302,-0.00976563,0.00773926,
7304,-0.0158691,0.0078186,
7306,-0.00305176,0.0078064,
7308,-0.00183105,0.00770874,
7310,-0.0012207,0.00758057,
7312,0.000610352,0.00755005,
7314,-0.0195313,0.00759277,
7316,0,0.00750122,
7318,-0.00915527,0.00751343,
7320,0,0.00737915,
7322,-0.00183105,0.00733032,
7324,-0.00732422,0.00734253,
7326,-0.00610352,0.00733643,
7328,0.00549316,0.00730591,
7330,-0.0140381,0.00733643,
7332,-0.00305176,0.00735474,
7334,-0.00183105,0.00731201,
7336,-0.00610352,0.00736694,
7338,-0.010376,0.00738525,
7340,-0.00671387,0.00725098,
7342,-0.00854492,0.00726929,
7344,-0.0109863,0.00734253,
7346,-0.00244141,0.00730591,
7348,-0.00610352,0.00723877,
7350,-0.00244141,0.00715332,
7352,-0.00915527,0.00706177,
7354,-0.0146484,0.00714722,
7356,-0.000610352,0.00706787,
7358,-0.010376,0.00705566,
7360,-0.00427246,0.00704346,
7362,-0.00793457,0.00706787,
7364,-0.00549316,0.00692749,
7366,0.000610352,0.00692139,
7368,-0.00915527,0.00697632,
7370,-0.00915527,0.00700684,
7372,0.0012207,0.0069458,
7374,-0.012207,0.00693359,
7376,-0.00549316,0.0069397,
7378,-0.0109863,0.00698853,
7380,-0.00854492,0.00706787,
7382,-0.00549316,0.00687866,
7384,-0.00854492,0.00689697,
7386,-0.00244141,0.00686035,
7388,-0.00549316,0.00682373,
7390,0.00671387,0.00682373,
7392,-0.00244141,0.00662842,
7394,-0.00366211,0.00661621,
7396,0.012207,0.00671997,
7398,-0.00732422,0.00670166,
7400,0.000610352,0.00656738,
7402,0.00427246,0.00651245,
7404,-0.0115967,0.00650635,
7406,0.00183105,0.00651855,
7408,-0.0201416,0.00667114,
7410,-0.012207,0.00674438,
7412,-0.0012207,0.00667114,
7414,-0.00854492,0.00665894,
7416,-0.00549316,0.00667114,
7418,-0.00549316,0.00661621,
7420,-0.0128174,0.00665283,
7422,0.0128174,0.0067627,
7424,0.00183105,0.00674438,
7426,-0.0158691,0.00680542,
7428,-0.00244141,0.00673218,
7430,0,0.00667725,
7432,-0.00427246,0.00667114,
7434,-0.00549316,0.00668335,
7436,-0.00488281,0.00667114,
7438,-0.00610352,0.00665283,
7440,-0.00732422,0.00662842,
7442,-0.0134277,0.00670166,
7444,-0.00366211,0.00669556,
7446,-0.000610352,0.00669556,
7448,-0.010376,0.00668945,
7450,-0.0164795,0.00683594,
7452,0.00305176,0.00678101,
7454,-0.0177002,0.0067688,
7456,0.00549316,0.00681763,
7458,0.00915527,0.00679932,
7460,-0.0134277,0.00692139,
7462,-0.0115967,0.00699463,
7464,-0.00305176,0.00684204,
7466,0.0164795,0.0069397,
7468,0.00305176,0.00688477,
7470,-0.0238037,0.00705566,
7472,-0.00854492,0.0071106,
7474,-0.00732422,0.00708008,
7476,-0.00305176,0.00703735,
7478,-0.010376,0.00704956,
7480,-0.0189209,0.00718384,
7482,-0.0152588,0.00726318,
7484,-0.012207,0.00736084,
7486,-0.0109863,0.00742187,
7488,-0.0115967,0.00749512,
7490,-0.00366211,0.00750732,
7492,-0.00366211,0.00739136,
7494,-0.00183105,0.00736694,
7496,0.000610352,0.00733643,
7498,-0.010376,0.00741577,
7500,-0.00305176,0.00736694,
7502,0.00366211,0.00730591,
7504,-0.00549316,0.00720215,
7506,-0.00366211,0.00720825,
7508,-0.0109863,0.0072998,
7510,-0.00488281,0.00733643,
7512,-0.0012207,0.00734253,
7514,-0.0128174,0.00727539,
7516,-0.00366211,0.00731201,
7518,-0.00183105,0.00723877,
7520,-0.00427246,0.00728149,
7522,-0.00671387,0.00733032,
7524,-0.00549316,0.00731201,
7526,0.00732422,0.00732422,
7528,-0.0146484,0.00741577,
7530,-0.00976563,0.00737305,
7532,-0.00915527,0.00743408,
7534,-0.00549316,0.0074707,
7536,-0.00976563,0.00750732,
7538,-0.00793457,0.00748291,
7540,0.00732422,0.00748901,
7542,-0.0152588,0.00755615,
7544,-0.00183105,0.0074646,
7546,-0.00305176,0.0074707,
7548,-0.00549316,0.0074646,
7550,0,0.00744019,
7552,-0.00427246,0.00739136,
7554,-0.000610352,0.00725098,
7556,-0.0109863,0.00735474,
7558,-0.0140381,0.00739136,
7560,-0.00427246,0.00739136,
7562,-0.0170898,0.00748291,
7564,-0.0109863,0.00753784,
7566,-0.00427246,0.00757446,
7568,-0.0238037,0.00772095,
7570,-0.0164795,0.00779419,
7572,-0.00793457,0.00786133,
7574,-0.00427246,0.00778198,
7576,-0.00915527,0.0078186,
7578,-0.00549316,0.00776367,
7580,-0.00183105,0.00769653,
7582,0,0.0076416,
7584,-0.00427246,0.00759888,
7586,-0.00671387,0.0076416,
7588,-0.00671387,0.00765381,
7590,0.00305176,0.00761719,
7592,0.00488281,0.0076416,
7594,0.00366211,0.0076416,
7596,-0.0146484,0.00766602,
7598,0.00183105,0.00761108,
7600,0.00915527,0.00769653,
7602,-0.00732422,0.00772705,
7604,-0.0219727,0.00783081,
7606,0.00915527,0.00790405,
7608,-0.0012207,0.00771484,
7610,-0.0317383,0.00791016,
7612,-0.0134277,0.00803223,
7614,-0.0128174,0.00807495,
7616,-0.00427246,0.00806274,
7618,-0.0146484,0.0081543,
7620,-0.0183105,0.00820923,
7622,-0.00976563,0.00817871,
7624,-0.00732422,0.00823364,
7626,-0.00488281,0.00812378,
7628,-0.00671387,0.0081665,
7630,0.00244141,0.00819092,
7632,0.00366211,0.00818481,
7634,-0.00976563,0.00822754,
7636,-0.00854492,0.00826416,
7638,0.00244141,0.00822754,
7640,0.00244141,0.00817871,
7642,-0.00671387,0.00811157,
7644,-0.00915527,0.0081665,
7646,-0.00183105,0.00817871,
7648,-0.0140381,0.00821533,
7650,-0.00183105,0.00806885,
7652,0.0012207,0.00805054,
7654,-0.00854492,0.00795898,
7656,-0.00610352,0.00796509,
7658,-0.010376,0.00797729,
7660,-0.00305176,0.00787354,
7662,0,0.00775757,
7664,-0.0012207,0.00773926,
7666,0.00244141,0.00759888,
7668,-0.0115967,0.00768433,
7670,0.00244141,0.0074707,
7672,-0.0012207,0.00739746,
7674,-0.00793457,0.00740356,
7676,-0.00549316,0.00742798,
7678,-0.00854492,0.00740967,
7680,-0.00305176,0.00725098,
7682,-0.00671387,0.00716553,
7684,-0.0219727,0.00726318,
7686,-0.00732422,0.00722656,
7688,0.00854492,0.00719604,
7690,0.0109863,0.00726929,
7692,-0.0262451,0.00749512,
7694,-0.000610352,0.00748291,
7696,-0.00183105,0.00749512,
7698,-0.00732422,0.0074646,
7700,-0.00244141,0.0074585,
7702,-0.0128174,0.00755005,
7704,-0.00549316,0.00755005,
7706,-0.0012207,0.00752563,
7708,-0.00915527,0.00750732,
7710,-0.0164795,0.00762329,
7712,-0.00610352,0.00767212,
7714,-0.00183105,0.00756226,
7716,-0.00305176,0.00755615,
7718,-0.00793457,0.00761719,
7720,-0.00854492,0.00765991,
7722,-0.010376,0.00769653,
7724,-0.00488281,0.00769043,
7726,-0.00488281,0.00766602,
7728,-0.00732422,0.00759277,
7730,-0.00427246,0.00753784,
7732,-0.00488281,0.00749512,
7734,-0.00854492,0.00752563,
7736,0.00549316,0.00748291,
7738,-0.0109863,0.00751343,
7740,-0.0115967,0.00755615,
7742,0.00793457,0.00748291,
7744,0.00549316,0.00751953,
7746,-0.00488281,0.00753784,
7748,-0.0158691,0.0076416,
7750,-0.00610352,0.00770264,
7752,0.00366211,0.00769653,
7754,-0.00976563,0.00778809,
7756,0.0012207,0.00769043,
7758,-0.0140381,0.00769043,
7760,-0.00488281,0.00769653,
7762,-0.00854492,0.00761108,
7764,-0.00976563,0.00759888,
7766,-0.00854492,0.0076416,
7768,-0.00915527,0.00749512,
7770,-0.010376,0.00743408,
7772,-0.0115967,0.0074707,
7774,-0.00976563,0.00752563,
7776,-0.0152588,0.00758667,
7778,-0.0115967,0.00764771,
7780,0.000610352,0.0076355,
7782,0.00183105,0.00765381,
7784,0.000610352,0.00761719,
7786,0.00183105,0.00756836,
7788,-0.0231934,0.00773315,
7790,0.00427246,0.00774536,
7792,-0.00366211,0.00773315,
7794,-0.00488281,0.00774536,
7796,-0.0109863,0.00770874,
7798,-0.0183105,0.00787354,
7800,-0.00549316,0.00783691,
7802,-0.0128174,0.00789185,
7804,-0.00549316,0.00772705,
7806,0.00244141,0.00765991,
7808,-0.0183105,0.00783081,
7810,-0.00305176,0.00754395,
7812,0.0012207,0.00742187,
7814,-0.00549316,0.00734863,
7816,-0.0012207,0.00731812,
7818,0.0012207,0.00718384,
7820,-0.00793457,0.00708008,
7822,-0.00610352,0.00704346,
7824,-0.00488281,0.00701904,
7826,-0.00366211,0.00700684,
7828,-0.00549316,0.00699463,
7830,-0.0109863,0.00708008,
7832,-0.00732422,0.0071167,
7834,-0.012207,0.00714111,
7836,-0.00610352,0.0071167,
7838,-0.00366211,0.00712891,
7840,0,0.00710449,
7842,-0.00366211,0.00707397,
7844,0.00549316,0.00703735,
7846,-0.00488281,0.00706787,
7848,0.000610352,0.00693359,
7850,0.0128174,0.00704346,
7852,-0.0262451,0.0072937,
7854,-0.00305176,0.00723877,
7856,0.000610352,0.00718384,
7858,-0.0152588,0.00723267,
7860,-0.0140381,0.00734253,
7862,-0.00915527,0.00743408,
7864,-0.0158691,0.00758057,
7866,-0.00488281,0.00760498,
7868,-0.00549316,0.00754395,
7870,-0.00549316,0.00757446,
7872,0.00366211,0.00759888,
7874,0.000610352,0.00752563,
7876,-0.0146484,0.00761719,
7878,0.000610352,0.00753784,
7880,-0.00610352,0.00756836,
7882,-0.00305176,0.00753174,
7884,-0.00610352,0.00737305,
7886,-0.00793457,0.00737915,
7888,-0.0170898,0.0074646,
7890,-0.0012207,0.00736694,
7892,-0.00610352,0.00716553,
7894,-0.00366211,0.00719604,
7896,-0.00427246,0.00722046,
7898,-0.012207,0.00726929,
7900,-0.000610352,0.00725098,
7902,-0.00488281,0.00717163,
7904,-0.00610352,0.00717773,
7906,-0.00305176,0.00719604,
7908,-0.0128174,0.00723267,
7910,-0.00244141,0.00709229,
7912,-0.0012207,0.00704346,
7914,-0.00549316,0.00708008,
7916,0.00305176,0.00708008,
7918,-0.0128174,0.00712891,
7920,0.00488281,0.00709229,
7922,-0.010376,0.00709229,
7924,0.00488281,0.00709229,
7926,0.00732422,0.0071167,
7928,-0.0134277,0.00717773,
7930,-0.0109863,0.00724487,
7932,-0.000610352,0.00720215,
7934,-0.00732422,0.00718994,
7936,-0.00732422,0.00720825,
7938,-0.00976563,0.00719604,
7940,-0.00549316,0.00713501,
7942,-0.012207,0.00717773,
7944,-0.00854492,0.00720825,
7946,-0.00244141,0.00718384,
7948,-0.00549316,0.00708008,
7950,-0.0109863,0.00712891,
7952,-0.012207,0.00721436,
7954,-0.0012207,0.00712891,
7956,0.00183105,0.00713501,
7958,-0.0152588,0.00714722,
7960,-0.000610352,0.00710449,
7962,-0.00244141,0.00704346,
7964,-0.00854492,0.00703125,
7966,-0.00793457,0.00702515,
7968,-0.00305176,0.00696411,
7970,-0.00671387,0.00692749,
7972,-0.00671387,0.00687866,
7974,-0.00854492,0.00686646,
7976,-0.00732422,0.00678711,
7978,-0.00244141,0.00669556,
7980,0.00366211,0.00672607,
7982,-0.00976563,0.00680542,
7984,-0.00854492,0.00688477,
7986,0.00732422,0.0069397,
7988,0,0.00670776,
7990,-0.00488281,0.00671387,
7992,-0.0134277,0.00681152,
7994,0.00854492,0.00684814,
7996,-0.010376,0.00684204,
7998,-0.00671387,0.00672607,
8000,-0.00183105,0.00668945,
8002,-0.00549316,0.00661621,
8004,-0.0140381,0.00670166,
8006,0.00610352,0.00673828,
8008,-0.0170898,0.00672607,
8010,-0.0146484,0.00684204,
8012,-0.00427246,0.00687256,
8014,-0.00793457,0.00689697,
8016,-0.00244141,0.00690918,
8018,-0.010376,0.00700073,
8020,-0.00671387,0.00698853,
8022,-0.000610352,0.00693359,
8024,-0.012207,0.00700684,
8026,-0.00183105,0.00698853,
8028,-0.00976563,0.00703125,
8030,-0.00610352,0.00698242,
8032,-0.00549316,0.00696411,
8034,-0.00671387,0.00690918,
8036,-0.00549316,0.00690308,
8038,-0.00305176,0.00689697,
8040,0.00854492,0.00698242,
8042,-0.00854492,0.00703125,
8044,-0.000610352,0.00698242,
8046,-0.00488281,0.00698242,
8048,-0.00976563,0.00707397,
8050,-0.012207,0.00706787,
8052,-0.0189209,0.00699463,
8054,-0.0140381,0.00710449,
8056,-0.0158691,0.00725708,
8058,-0.0219727,0.00732422,
8060,-0.00671387,0.00725098,
8062,-0.00549316,0.00721436,
8064,-0.0201416,0.00725708,
8066,-0.00793457,0.0072876,
8068,0.00549316,0.0072876,
8070,-0.00732422,0.00730591,
8072,0.0012207,0.00728149,
8074,-0.010376,0.00737915,
8076,-0.00610352,0.0072937,
8078,-0.0012207,0.0072998,
8080,-0.00793457,0.00731812,
8082,-0.00549316,0.00734253,
8084,-0.0115967,0.00739746,
8086,-0.010376,0.00742187,
8088,-0.0109863,0.00736084,
8090,-0.00305176,0.00737915,
8092,-0.012207,0.00744019,
8094,-0.00305176,0.00743408,
8096,0.00610352,0.00745239,
8098,-0.00305176,0.00736084,
8100,-0.0189209,0.00754395,
8102,0.000610352,0.00750122,
8104,0.00549316,0.00749512,
8106,-0.00732422,0.00753784,
8108,-0.0189209,0.00759888,
8110,-0.012207,0.00769653,
8112,-0.00488281,0.00773315,
8114,-0.000610352,0.00768433,
8116,-0.00305176,0.00768433,
8118,-0.0231934,0.00778809,
8120,-0.00854492,0.00782471,
8122,0.00549316,0.00777588,
8124,0,0.00772705,
8126,0.00610352,0.00771484,
8128,-0.0152588,0.00773315,
8130,-0.0164795,0.00778809,
8132,-0.0128174,0.00791016,
8134,0.00610352,0.00789795,
8136,-0.00793457,0.00790405,
8138,-0.0152588,0.00795898,
8140,-0.0170898,0.00807495,
8142,-0.00854492,0.00803833,
8144,-0.00610352,0.00801392,
8146,-0.00427246,0.00803223,
8148,-0.0128174,0.00810547,
8150,-0.00915527,0.00808716,
8152,-0.0012207,0.00797729,
8154,-0.00488281,0.00801392,
8156,-0.00793457,0.00807495,
8158,-0.0158691,0.00808105,
8160,-0.00793457,0.0081543,
8162,0.00244141,0.0081543,
8164,-0.00427246,0.00811157,
8166,0.00732422,0.00810547,
8168,-0.0109863,0.00818481,
8170,-0.00305176,0.00814819,
8172,0.00305176,0.00811157,
8174,-0.00549316,0.00808105,
8176,0.000610352,0.00801392,
8178,-0.0146484,0.00813599,
8180,-0.00976563,0.00819702,
8182,-0.00183105,0.00811768,
8184,0.00183105,0.00805054,
8186,-0.00976563,0.00807495,
8188,-0.00915527,0.0081665,
8190,-0.00244141,0.00814209,
8192,-0.00610352,0.00806885,
8194,-0.000610352,0.0079895,
8196,-0.0146484,0.00803223,
8198,-0.0128174,0.00809326,
8200,-0.00427246,0.00811768,
8202,-0.00854492,0.00814819,
8204,-0.00610352,0.00806885,
8206,-0.00305176,0.00803833,
8208,-0.00610352,0.00792847,
8210,-0.00366211,0.0078186,
8212,0.000610352,0.00778198,
8214,-0.00915527,0.00779419,
8216,-0.00305176,0.00780029,
8218,-0.00488281,0.00774536,
8220,0.00305176,0.00770874,
8222,0.00793457,0.00778198,
8224,0.00732422,0.00773315,
8226,-0.0177002,0.00789185,
8228,-0.0152588,0.00794678,
8230,0.0128174,0.00801392,
8232,-0.00427246,0.00800171,
8234,-0.0140381,0.00807495,
8236,-0.0152588,0.00817261,
8238,-0.0158691,0.00830078,
8240,-0.00732422,0.00828857,
8242,-0.00976563,0.00830078,
8244,-0.00305176,0.0083252,
8246,-0.00488281,0.0083252,
8248,0.0012207,0.00823975,
8250,-0.00732422,0.00819092,
8252,-0.00244141,0.00802612,
8254,-0.00488281,0.00793457,
8256,-0.00244141,0.00780029,
8258,-0.00732422,0.00765381,
8260,-0.010376,0.00769043,
8262,0.00610352,0.00769653,
8264,-0.0128174,0.00762329,
8266,-0.00183105,0.00756226,
8268,0.0012207,0.00751953,
8270,-0.00976563,0.00754395,
8272,-0.00366211,0.00756836,
8274,0.00488281,0.00751343,
8276,-0.00366211,0.00748901,
8278,-0.00488281,0.00752563,
8280,-0.00976563,0.00754395,
8282,-0.00793457,0.00756836,
8284,-0.010376,0.00755615,
8286,-0.00427246,0.00749512,
8288,-0.012207,0.00750732,
8290,0.00427246,0.00751953,
8292,-0.0195313,0.00759277,
8294,-0.0158691,0.00772095,
8296,-0.00183105,0.00767822,
8298,-0.00488281,0.00769653,
8300,-0.00488281,0.00755615,
8302,-0.0115967,0.00766602,
8304,-0.0244141,0.00785522,
8306,0.00305176,0.0078125,
8308,-0.0152588,0.00777588,
8310,-0.00671387,0.00772095,
8312,-0.00793457,0.00775146,
8314,-0.0115967,0.00786133,
8316,-0.00305176,0.00786133,
8318,-0.00793457,0.00770874,
8320,-0.00671387,0.00769043,
8322,0.00183105,0.00765381,
8324,-0.00671387,0.00772095,
8326,-0.000610352,0.00766602,
8328,-0.0012207,0.00752563,
8330,0.00915527,0.00745239,
8332,0.000610352,0.00733032,
8334,-0.00610352,0.00733032,
8336,-0.0238037,0.00748901,
8338,0.000610352,0.00734253,
8340,-0.00366211,0.00720825,
8342,-0.00610352,0.00718384,
8344,-0.010376,0.00722656,
8346,-0.0146484,0.00733032,
