Dani_A_2-L01
Gráfico creado el:2026-06-03 16:33:58.545
Registro en:2026-06-03 16:36:17.765
2 mseg/muestras
2 canales
EMG
mV
EMG Integrado
mV-sec
milliSec,CH1,CH40,
,90416 samples,90416 samples,
0,-0.00305176,3.05176E-05,
2,-0.00854492,0.000115967,
4,-0.0195313,0.000311279,
6,-0.00305176,0.000341797,
8,-0.0146484,0.000488281,
10,-0.012207,0.000610352,
12,0.00183105,0.000628662,
14,-0.00915527,0.000720215,
16,-0.00488281,0.000769043,
18,-0.0140381,0.000909424,
20,-0.00549316,0.000964355,
22,-0.0109863,0.00107422,
24,-0.0189209,0.00126343,
26,-0.00427246,0.00130615,
28,-0.0115967,0.00142212,
30,-0.0140381,0.0015625,
32,0.012207,0.00168457,
34,-0.0231934,0.0019165,
36,-0.0012207,0.00192871,
38,0.00854492,0.00201416,
40,0.0012207,0.00202637,
42,0.00549316,0.0020813,
44,-0.00366211,0.00211792,
46,0.00732422,0.00219116,
48,0.00854492,0.00227661,
50,-0.00366211,0.00231323,
52,-0.0146484,0.00245972,
54,-0.00305176,0.00249023,
56,-0.00793457,0.00256958,
58,-0.00244141,0.00259399,
60,-0.0115967,0.00270996,
62,0.00305176,0.00274048,
64,-0.0134277,0.00287476,
66,-0.0012207,0.00288696,
68,-0.00549316,0.00294189,
70,-0.010376,0.00304565,
72,-0.00183105,0.00306396,
74,0.00549316,0.0031189,
76,-0.0012207,0.0031311,
78,-0.0128174,0.00325928,
80,-0.0012207,0.00327148,
82,-0.00915527,0.00336304,
84,-0.00732422,0.00343628,
86,0.0134277,0.00357056,
88,0.0189209,0.00375977,
90,-0.010376,0.00386353,
92,0.0128174,0.0039917,
94,-0.0238037,0.00422974,
96,-0.00915527,0.00432129,
98,0.012207,0.00444336,
100,-0.00610352,0.00450439,
102,-0.010376,0.00460815,
104,-0.0292969,0.00490112,
106,-0.0195313,0.00509644,
108,0.00610352,0.00515747,
110,0.000610352,0.00516357,
112,0.010376,0.00526733,
114,0.00305176,0.00529785,
116,-0.00671387,0.00536499,
118,-0.00366211,0.00540161,
120,-0.00549316,0.00545654,
122,0.000610352,0.00546265,
124,-0.0164795,0.00562744,
126,-0.0201416,0.00582886,
128,-0.0115967,0.00594482,
130,-0.0158691,0.00610352,
132,-0.00244141,0.00612793,
134,-0.00305176,0.00615845,
136,-0.000610352,0.00616455,
138,-0.00732422,0.00623779,
140,-0.0158691,0.00639648,
142,-0.0115967,0.00651245,
144,-0.0109863,0.00662231,
146,-0.00732422,0.00669556,
148,0.00366211,0.00673218,
150,-0.0177002,0.00690918,
152,-0.0140381,0.00704956,
154,-0.0170898,0.00722046,
156,0.00732422,0.0072937,
158,0.00427246,0.00733643,
160,-0.00732422,0.00740967,
162,-0.00671387,0.00747681,
164,-0.0177002,0.00765381,
166,-0.00427246,0.00769653,
168,-0.0012207,0.00770874,
170,-0.00854492,0.00779419,
172,-0.00183105,0.0078125,
174,-0.00610352,0.00787354,
176,-0.00549316,0.00792847,
178,0,0.00792847,
180,-0.00671387,0.00799561,
182,0.00549316,0.00805054,
184,0.00610352,0.00811157,
186,0.0134277,0.00824585,
188,-0.00610352,0.00830688,
190,-0.00549316,0.00836182,
192,0.00915527,0.00845337,
194,0.0146484,0.00859985,
196,-0.00671387,0.00866699,
198,-0.00671387,0.00873413,
200,-0.0164795,0.00886841,
202,0.000610352,0.00878906,
204,-0.00488281,0.00864258,
206,-0.0152588,0.00876465,
208,-0.0140381,0.00875854,
210,0.0012207,0.00864868,
212,0.0158691,0.00878906,
214,0.00427246,0.00874023,
216,0.00244141,0.00871582,
218,-0.00610352,0.00863647,
220,-0.00488281,0.00863037,
222,0.0274658,0.00879517,
224,-0.0213623,0.00881958,
226,-0.0231934,0.00900879,
228,-0.0115967,0.00900879,
230,-0.0170898,0.00903931,
232,-0.012207,0.00903931,
234,-0.00976563,0.00890503,
236,-0.0311279,0.0092041,
238,0.000610352,0.00912476,
240,0.000610352,0.00911865,
242,-0.00976563,0.00916138,
244,-0.00183105,0.00914307,
246,-0.0012207,0.00908203,
248,-0.012207,0.00911865,
250,-0.00549316,0.00913696,
252,-0.00427246,0.0090332,
254,-0.0012207,0.00901489,
256,0.010376,0.00903931,
258,-0.00915527,0.00910645,
260,-0.00183105,0.00900879,
262,0.0140381,0.00911865,
264,0.0134277,0.00911865,
266,-0.00244141,0.00913086,
268,-0.0012207,0.00908813,
270,-0.010376,0.00908813,
272,0.0012207,0.00908203,
274,-0.0134277,0.00916138,
276,-0.0170898,0.00932007,
278,-0.0189209,0.0093811,
280,-0.00854492,0.00945435,
282,-0.000610352,0.0093689,
284,-0.0109863,0.00940552,
286,0.0250244,0.00952148,
288,-0.00427246,0.009375,
290,-0.0158691,0.00942993,
292,0.00366211,0.00933838,
294,0.0146484,0.00924683,
296,0.000610352,0.00916138,
298,-0.010376,0.00914307,
300,-0.00976563,0.00917969,
302,-0.00305176,0.00910645,
304,-0.00183105,0.00883179,
306,0.0115967,0.00875244,
308,-0.0164795,0.0088562,
310,-0.00976563,0.00894775,
312,0.00549316,0.00889893,
314,-0.00183105,0.00888672,
316,0.0012207,0.00883179,
318,-0.00671387,0.0088623,
320,-0.00854492,0.00889282,
322,0.0152588,0.00903931,
324,0.00549316,0.00892944,
326,0.00732422,0.00880127,
328,-0.0128174,0.00881348,
330,-0.00671387,0.00872192,
332,-0.00366211,0.00873413,
334,0.0201416,0.00890503,
336,-0.000610352,0.00890503,
338,0.00183105,0.0088501,
340,-0.0299072,0.00899048,
342,-0.00244141,0.00889893,
344,0.0170898,0.00895996,
346,-0.00427246,0.00892944,
348,-0.0213623,0.00910645,
350,-0.0109863,0.00903931,
352,-0.00549316,0.00895386,
354,-0.00488281,0.00883179,
356,0.0115967,0.00887451,
358,0.000610352,0.00883789,
360,-0.0012207,0.00877686,
362,-0.00610352,0.00877075,
364,0.00915527,0.0086853,
366,0.00610352,0.00870361,
368,0.00366211,0.00872803,
370,-0.00976563,0.00874023,
372,-0.0213623,0.00893555,
374,-0.020752,0.00908203,
376,0.000610352,0.0090332,
378,-0.00854492,0.00911865,
380,-0.00793457,0.00913086,
382,-0.0256348,0.00933228,
384,-0.00793457,0.00935059,
386,-0.00366211,0.00925293,
388,-0.0012207,0.0092041,
390,0.00854492,0.00923462,
392,-0.00244141,0.00916748,
394,-0.0128174,0.00914917,
396,0.0115967,0.009198,
398,0.00305176,0.00916138,
400,-0.00427246,0.00903931,
402,0.0012207,0.00904541,
404,0.00915527,0.00908813,
406,-0.0109863,0.00904541,
408,-0.00854492,0.00899048,
410,0.00732422,0.00905151,
412,0.0115967,0.00900879,
414,-0.00915527,0.00905762,
416,0.000610352,0.00903931,
418,-0.000610352,0.00898438,
420,-0.00549316,0.00899048,
422,0.0012207,0.00872803,
424,-0.00610352,0.00857544,
426,-0.0128174,0.00847168,
428,-0.0115967,0.00847168,
430,-0.010376,0.00840454,
432,-0.010376,0.00838623,
434,-0.0189209,0.00847778,
436,-0.0134277,0.00830078,
438,-0.00793457,0.00837402,
440,-0.010376,0.00847168,
442,-0.00427246,0.00841675,
444,-0.00244141,0.00842285,
446,-0.00915527,0.0085022,
448,0.00183105,0.00839844,
450,-0.00244141,0.00836792,
452,0.00244141,0.00834961,
454,-0.00488281,0.00838623,
456,0.00183105,0.00830078,
458,0.000610352,0.00821533,
460,-0.000610352,0.00820313,
462,0.00244141,0.00808716,
464,-0.00793457,0.00803223,
466,0.0109863,0.00811768,
468,0.0152588,0.00825806,
470,-0.00549316,0.00820923,
472,-0.00549316,0.00825195,
474,-0.00549316,0.00817261,
476,-0.000610352,0.00800781,
478,-0.0177002,0.00799561,
480,-0.0109863,0.00802002,
482,-0.0115967,0.00812988,
484,-0.00610352,0.00808105,
486,-0.0213623,0.00804443,
488,0.00427246,0.00804443,
490,0,0.00788574,
492,0.00793457,0.00792847,
494,-0.00305176,0.0078125,
496,0.00244141,0.00783081,
498,0.00854492,0.0078125,
500,0.00366211,0.00775146,
502,0.0244141,0.00796509,
504,-0.00610352,0.00800781,
506,-0.00610352,0.00795288,
508,0.000610352,0.00779419,
510,0.00305176,0.00772705,
512,-0.000610352,0.00767822,
514,-0.0201416,0.00786133,
516,-0.0183105,0.00803223,
518,-0.0262451,0.00822754,
520,-0.0146484,0.00828857,
522,-0.00915527,0.00822754,
524,-0.0231934,0.00840454,
526,-0.0219727,0.00855103,
528,-0.0177002,0.00859985,
530,-0.00732422,0.00860596,
532,-0.012207,0.00869141,
534,-0.0109863,0.00859985,
536,-0.00610352,0.00865479,
538,-0.0115967,0.00875244,
540,0.00183105,0.00847168,
542,-0.00244141,0.00847168,
544,0.00549316,0.00835571,
546,0.0115967,0.00842896,
548,0.0012207,0.00822754,
550,-0.00305176,0.00814819,
552,0.010376,0.00819702,
554,0.0170898,0.00831909,
556,0.00183105,0.00822144,
558,-0.010376,0.00831909,
560,0.00366211,0.00834351,
562,-0.00366211,0.00831909,
564,-0.0231934,0.00845947,
566,0.00671387,0.00846558,
568,-0.0189209,0.00861816,
570,-0.00488281,0.00856934,
572,-0.00549316,0.00841064,
574,0.00488281,0.00825195,
576,0.00488281,0.00829468,
578,-0.00305176,0.00823975,
580,-0.0189209,0.00834961,
582,0.00671387,0.0081604,
584,-0.00244141,0.00810547,
586,-0.00366211,0.00810547,
588,-0.0115967,0.00820923,
590,-0.012207,0.00824585,
592,-0.020752,0.00842896,
594,-0.00732422,0.00837402,
596,0.00854492,0.00834351,
598,-0.00793457,0.00839233,
600,-0.00427246,0.00839233,
602,-0.00793457,0.00845947,
604,-0.0134277,0.0085022,
606,0.0109863,0.0085022,
608,-0.00976563,0.0085144,
610,0.00427246,0.00848389,
612,-0.0012207,0.00838013,
614,-0.00244141,0.00831299,
616,-0.00915527,0.00839844,
618,-0.00610352,0.00845337,
620,-0.00610352,0.00845947,
622,0.00915527,0.00853882,
624,-0.0164795,0.00864258,
626,0.00183105,0.00853271,
628,-0.00549316,0.00847168,
630,-0.00183105,0.00838623,
632,0.00793457,0.00836182,
634,-0.00915527,0.00826416,
636,0.00793457,0.00820923,
638,0.00305176,0.0081604,
640,-0.00549316,0.00811157,
642,0.0140381,0.00820923,
644,-0.00305176,0.00821533,
646,0.0274658,0.00839844,
648,0.0250244,0.00863037,
650,0.012207,0.00872803,
652,-0.00427246,0.00874634,
654,-0.00244141,0.00872192,
656,0.00488281,0.00875244,
658,-0.0012207,0.00875854,
660,-0.0219727,0.00897217,
662,-0.00305176,0.00897827,
664,-0.032959,0.00922852,
666,-0.0170898,0.00928955,
668,-0.0164795,0.00930176,
670,0,0.00924683,
672,-0.0177002,0.0093689,
674,-0.010376,0.00941772,
676,-0.00183105,0.00942993,
678,-0.00854492,0.00933838,
680,-0.0274658,0.00950317,
682,0.00976563,0.00948486,
684,0.00183105,0.00944214,
686,0.00610352,0.00928955,
688,0.00915527,0.00933838,
690,-0.00244141,0.00936279,
692,0.0164795,0.00944824,
694,0.0012207,0.00942993,
696,0.0012207,0.00941772,
698,0,0.00933228,
700,-0.00183105,0.00931396,
702,0.00671387,0.00913696,
704,-0.00244141,0.00910034,
706,0.010376,0.00914307,
708,-0.0189209,0.00932617,
710,-0.00305176,0.00932617,
712,0.00854492,0.00940552,
714,0.0012207,0.00921631,
716,-0.00976563,0.00913086,
718,-0.0274658,0.00914307,
720,-0.0195313,0.00919189,
722,-0.00244141,0.00912476,
724,-0.0012207,0.00890503,
726,-0.010376,0.00878906,
728,-0.00244141,0.00863647,
730,0,0.00856323,
732,0.00183105,0.00845947,
734,0.00671387,0.00841675,
736,0.00488281,0.00840454,
738,0.0140381,0.00842896,
740,-0.0189209,0.00859985,
742,-0.0128174,0.00870361,
744,-0.0115967,0.00876465,
746,0.00488281,0.00869751,
748,-0.010376,0.00878906,
750,-0.0238037,0.00899658,
752,-0.00793457,0.00897217,
754,-0.00549316,0.0088562,
756,-0.0012207,0.0088501,
758,-0.0231934,0.00897827,
760,-0.00305176,0.00897217,
762,0.012207,0.00905762,
764,-0.010376,0.00892944,
766,0.0115967,0.00897827,
768,0.0189209,0.00897827,
770,-0.0012207,0.00894165,
772,0.00244141,0.00891113,
774,0.00549316,0.00891724,
776,0.0244141,0.00911255,
778,-0.00427246,0.00912476,
780,-0.0268555,0.0092041,
782,-0.0238037,0.009375,
784,-0.00244141,0.009375,
786,-0.0140381,0.00947876,
788,-0.0128174,0.00949097,
790,-0.00915527,0.00946045,
792,0.0170898,0.00942383,
794,0.0158691,0.00950928,
796,0.0317383,0.00974121,
798,-0.0189209,0.00985107,
800,-0.0158691,0.00996704,
802,0.0219727,0.0101074,
804,-0.0140381,0.0101135,
806,-0.00427246,0.0100464,
808,-0.0360107,0.0103088,
810,-0.0109863,0.010376,
812,-0.0201416,0.0105652,
814,-0.0299072,0.0108398,
816,0.0012207,0.0107605,
818,-0.00793457,0.0107788,
820,-0.00915527,0.0108093,
822,0.00854492,0.0108032,
824,0.020752,0.0108459,
826,0.0280762,0.0111084,
828,0.0268555,0.011322,
830,0.000610352,0.0113098,
832,0.0158691,0.0113892,
834,0.0360107,0.0116577,
836,0.00244141,0.0116028,
838,-0.0158691,0.011731,
840,-0.0262451,0.0119385,
842,-0.032959,0.0121277,
844,-0.0256348,0.0123535,
846,-0.00915527,0.0121704,
848,-0.0384521,0.0123047,
850,-0.0280762,0.0124634,
852,0.00549316,0.0124756,
854,-0.0177002,0.0126282,
856,-0.00854492,0.0126648,
858,-0.012207,0.0127747,
860,0.00305176,0.0125854,
862,-0.00793457,0.0126343,
864,-0.0109863,0.0124146,
866,-0.00793457,0.012323,
868,-0.00915527,0.0122498,
870,-0.0115967,0.0123657,
872,0.00427246,0.0122314,
874,0.00793457,0.012207,
876,-0.00915527,0.0122803,
878,0.010376,0.0122986,
880,0.000610352,0.01203,
882,0.00427246,0.0119751,
884,0.00244141,0.0119812,
886,-0.00793457,0.0119995,
888,-0.0140381,0.0120483,
890,-0.0219727,0.0122437,
892,-0.00183105,0.0120972,
894,-0.0158691,0.0122437,
896,-0.00915527,0.012323,
898,-0.0012207,0.0123352,
900,-0.000610352,0.012323,
902,-0.00549316,0.0123108,
904,-0.0134277,0.0124207,
906,0,0.0123169,
908,-0.0146484,0.0122742,
910,-0.00976563,0.0123413,
912,-0.0164795,0.0124207,
914,-0.0189209,0.0125977,
916,-0.010376,0.0126038,
918,-0.00671387,0.0123962,
920,-0.00793457,0.0122803,
922,-0.00854492,0.0123413,
924,0,0.0123291,
926,-0.00244141,0.0122498,
928,-0.00549316,0.0122803,
930,-0.010376,0.012384,
932,-0.010376,0.0124695,
934,-0.00549316,0.0124573,
936,0.0183105,0.0125916,
938,-0.0146484,0.0125977,
940,-0.00854492,0.0124939,
942,0.00366211,0.0124023,
944,0.00244141,0.0123108,
946,0.00427246,0.0123047,
948,-0.00427246,0.0122437,
950,-0.0146484,0.0121521,
952,0.00732422,0.012146,
954,-0.00549316,0.012146,
956,0.0012207,0.012146,
958,0.0109863,0.0120239,
960,-0.0146484,0.0121399,
962,0.00854492,0.0121033,
964,0.00366211,0.0120361,
966,0.00976563,0.0120178,
968,0.0146484,0.0119751,
970,0,0.0119629,
972,-0.000610352,0.0119446,
974,-0.00488281,0.0119385,
976,-0.010376,0.0117981,
978,0.0140381,0.0118958,
980,-0.00732422,0.0117004,
982,-0.00854492,0.0115479,
984,-0.00244141,0.0115479,
986,0.00488281,0.0114563,
988,0.00488281,0.011377,
990,0.00671387,0.0113525,
992,0.000610352,0.0111877,
994,0.00305176,0.0110596,
996,-0.00610352,0.0108032,
998,-0.00732422,0.0106873,
1000,-0.0262451,0.010791,
1002,0.012207,0.0106934,
1004,-0.0280762,0.0108337,
1006,-0.00793457,0.0108704,
1008,-0.00671387,0.0105774,
1010,-0.00793457,0.0105469,
1012,-0.00732422,0.0104187,
1014,0.0012207,0.0101318,
1016,0.0109863,0.0102295,
1018,0.0109863,0.01026,
1020,0.00488281,0.0102173,
1022,-0.00366211,0.0101685,
1024,-0.00732422,0.0100342,
1026,0.00732422,0.00982666,
1028,0.00732422,0.00963135,
1030,-0.0317383,0.00994263,
1032,-0.00915527,0.00987549,
1034,-0.00183105,0.00953369,
1036,0.00305176,0.00953979,
1038,-0.00732422,0.00945435,
1040,-0.0140381,0.00933228,
1042,-0.010376,0.00910645,
1044,-0.00427246,0.00889282,
1046,-0.0012207,0.00881348,
1048,-0.0183105,0.00861206,
1050,-0.0238037,0.00856934,
1052,-0.012207,0.00863647,
1054,-0.0128174,0.00858765,
1056,-0.00610352,0.00856323,
1058,-0.00488281,0.00848999,
1060,0.00305176,0.00848999,
1062,-0.000610352,0.00841675,
1064,-0.00427246,0.00834961,
1066,0.00732422,0.00834351,
1068,0.0146484,0.00839844,
1070,-0.00244141,0.00830688,
1072,0.00488281,0.00831299,
1074,-0.00305176,0.00826416,
1076,0.00976563,0.00827026,
1078,0.00488281,0.00821533,
1080,0.00671387,0.00827637,
1082,0.00610352,0.00829468,
1084,0.0152588,0.00842285,
1086,0.0280762,0.00862427,
1088,0.0012207,0.00849609,
1090,0.00244141,0.00830078,
1092,0.0213623,0.00849609,
1094,-0.00366211,0.00837402,
1096,-0.00793457,0.00836182,
1098,-0.00976563,0.00844727,
1100,0.00183105,0.00845947,
1102,-0.0219727,0.00862427,
1104,-0.0299072,0.00878906,
1106,-0.0128174,0.00891724,
1108,-0.0128174,0.00889893,
1110,-0.00793457,0.00888062,
1112,-0.00732422,0.00878906,
1114,-0.010376,0.00870361,
1116,-0.00366211,0.00863647,
1118,-0.00427246,0.00861206,
1120,-0.00305176,0.00856323,
1122,0.0109863,0.00858765,
1124,-0.00671387,0.00865479,
1126,-0.00427246,0.0086731,
1128,0.00915527,0.00870972,
1130,-0.0152588,0.00875854,
1132,0.0299072,0.00895386,
1134,0.00793457,0.00897827,
1136,0.00488281,0.00884399,
1138,0.00549316,0.00875244,
1140,-0.00427246,0.00870972,
1142,-0.00610352,0.00873413,
1144,0,0.00870972,
1146,-0.00427246,0.00870972,
1148,-0.00854492,0.00875244,
1150,-0.0341797,0.00894775,
1152,-0.0268555,0.00914307,
1154,-0.0115967,0.0092041,
1156,0.010376,0.00929565,
1158,0.00549316,0.00924072,
1160,-0.00854492,0.00917969,
1162,-0.00488281,0.00914307,
1164,-0.00610352,0.00916748,
1166,0.00793457,0.00914917,
1168,-0.00244141,0.0090271,
1170,-0.0183105,0.00921021,
1172,0.00366211,0.00924072,
1174,-0.00976563,0.00928955,
1176,-0.0262451,0.00944824,
1178,-0.000610352,0.00931396,
1180,-0.00854492,0.00932617,
1182,0,0.00924072,
1184,0.0158691,0.009375,
1186,0.00976563,0.00942383,
1188,-0.0134277,0.00950928,
1190,-0.00427246,0.00948486,
1192,0.0164795,0.00964355,
1194,0.0134277,0.00974731,
1196,0.0146484,0.00983276,
1198,-0.0189209,0.00994873,
1200,0.00976563,0.00978394,
1202,-0.00244141,0.00968628,
1204,0.00854492,0.00949097,
1206,-0.010376,0.00951538,
1208,-0.00488281,0.00949707,
1210,-0.00305176,0.00944824,
1212,-0.00549316,0.00942993,
1214,-0.00793457,0.00949707,
1216,0.00244141,0.00941162,
1218,-0.000610352,0.00930786,
1220,-0.0183105,0.00944214,
1222,-0.00488281,0.00945435,
1224,0.00488281,0.00942993,
1226,-0.00244141,0.0093811,
1228,-0.0012207,0.00932007,
1230,-0.00976563,0.00910034,
1232,-0.00915527,0.00910034,
1234,0.00366211,0.00911865,
1236,0.00488281,0.00913696,
1238,0.0195313,0.00925903,
1240,-0.00610352,0.00917969,
1242,-0.00671387,0.00914307,
1244,0.0012207,0.00911255,
1246,0.00915527,0.00919189,
1248,-0.00854492,0.00909424,
1250,-0.012207,0.00897827,
1252,-0.00549316,0.00891113,
1254,-0.00915527,0.00887451,
1256,-0.00244141,0.00883789,
1258,0.00915527,0.00888062,
1260,0.0140381,0.00899048,
1262,-0.00549316,0.00903931,
1264,-0.010376,0.00910034,
1266,0.00732422,0.00910034,
1268,-0.00854492,0.00903931,
1270,0.000610352,0.009021,
1272,-0.0134277,0.00910645,
1274,-0.0164795,0.00924072,
1276,0.0231934,0.009375,
1278,0.022583,0.009552,
1280,-0.0244141,0.009729,
1282,-0.0128174,0.00979614,
1284,0.0201416,0.00984497,
1286,0.00732422,0.00963745,
1288,-0.0128174,0.00975342,
1290,-0.00305176,0.00975952,
1292,-0.00488281,0.00959473,
1294,0.000610352,0.00956421,
1296,-0.00183105,0.00950317,
1298,0.00305176,0.00943604,
1300,-0.00305176,0.00944824,
1302,-0.010376,0.00933228,
1304,-0.010376,0.00913696,
1306,0,0.00900879,
1308,-0.00793457,0.00895996,
1310,-0.022583,0.00910645,
1312,-0.0115967,0.00914917,
1314,-0.00915527,0.00913696,
1316,-0.00915527,0.00919189,
1318,-0.00183105,0.00916748,
1320,0.00671387,0.0092041,
1322,0.0189209,0.00928345,
1324,0.00305176,0.00924683,
1326,-0.00549316,0.00925903,
1328,-0.00183105,0.00918579,
1330,0.000610352,0.00903931,
1332,-0.00305176,0.00877075,
1334,-0.0140381,0.00883179,
1336,-0.0177002,0.00895996,
1338,-0.0195313,0.00910034,
1340,-0.020752,0.00926514,
1342,-0.0183105,0.00938721,
1344,0.00244141,0.00941162,
1346,-0.00793457,0.00944824,
1348,0,0.00936279,
1350,0.0128174,0.00914917,
1352,0.00854492,0.00896606,
1354,-0.00427246,0.00889282,
1356,0.00732422,0.0088623,
1358,0.0158691,0.00896606,
1360,-0.010376,0.00898438,
1362,-0.00610352,0.00899658,
1364,-0.0134277,0.00906982,
1366,-0.010376,0.00909424,
1368,-0.0213623,0.00928345,
1370,-0.0012207,0.00911255,
1372,-0.00610352,0.00913696,
1374,-0.0152588,0.00919189,
1376,-0.00183105,0.00894775,
1378,0.0012207,0.00895386,
1380,-0.0152588,0.009021,
1382,0.00427246,0.00906372,
1384,0.00488281,0.00895386,
1386,0.00549316,0.00891113,
1388,0.00427246,0.00881958,
1390,0.00305176,0.00880737,
1392,-0.00427246,0.0086853,
1394,0.0012207,0.00856323,
1396,-0.00305176,0.00844727,
1398,0.0012207,0.00827026,
1400,-0.00793457,0.00825195,
1402,-0.000610352,0.00823364,
1404,-0.0109863,0.00825806,
1406,0.00183105,0.00817261,
1408,-0.00427246,0.0081665,
1410,-0.00305176,0.0081665,
1412,0.00610352,0.00817261,
1414,0.010376,0.00819702,
1416,-0.00671387,0.00823975,
1418,-0.000610352,0.00823975,
1420,-0.00305176,0.00808716,
1422,0.0115967,0.0081543,
1424,-0.0170898,0.00827637,
1426,-0.0238037,0.00848999,
1428,-0.00854492,0.00856323,
1430,0.00305176,0.00849609,
1432,-0.012207,0.00852661,
1434,-0.00183105,0.0085083,
1436,-0.00610352,0.00852051,
1438,-0.0115967,0.00844116,
1440,-0.0115967,0.00849609,
1442,-0.00427246,0.00847168,
1444,0.00793457,0.00853882,
1446,-0.00976563,0.00854492,
1448,0.000610352,0.00846558,
1450,0.00610352,0.00840454,
1452,0.00793457,0.00842896,
1454,0.0238037,0.00857544,
1456,0.00549316,0.00860596,
1458,-0.00671387,0.00858154,
1460,0.00610352,0.0085022,
1462,0.0140381,0.00858765,
1464,-0.00488281,0.00853271,
1466,-0.0170898,0.00863037,
1468,-0.012207,0.00866699,
1470,-0.020752,0.00886841,
1472,-0.0195313,0.00892944,
1474,-0.0268555,0.0090332,
1476,0.00610352,0.0088623,
1478,-0.0140381,0.00877686,
1480,-0.0268555,0.00880127,
1482,-0.0231934,0.00890503,
1484,-0.00549316,0.00875854,
1486,-0.00610352,0.00874634,
1488,-0.0128174,0.00874634,
1490,-0.012207,0.00883789,
1492,0.00488281,0.00883789,
1494,0.010376,0.00893555,
1496,0.00305176,0.00894775,
1498,0.00671387,0.00898438,
1500,-0.00915527,0.00904541,
1502,0,0.00894165,
1504,-0.00976563,0.00893555,
1506,0.00610352,0.00899658,
1508,-0.0158691,0.00907593,
1510,-0.020752,0.00905762,
1512,-0.0140381,0.00908203,
1514,-0.0189209,0.00917969,
1516,-0.00854492,0.00917358,
1518,-0.0012207,0.00916748,
1520,0.00244141,0.00912476,
1522,0.00854492,0.009021,
1524,0.000610352,0.00899658,
1526,0.00915527,0.0090332,
1528,-0.00183105,0.0090332,
1530,0.00305176,0.00905762,
1532,-0.0012207,0.00903931,
1534,0.00305176,0.00892944,
1536,-0.00854492,0.00883789,
1538,-0.0158691,0.00880127,
1540,-0.0140381,0.00873413,
1542,-0.00732422,0.00862427,
1544,0.0012207,0.00861206,
1546,0.00488281,0.00858154,
1548,-0.0012207,0.00859375,
1550,-0.012207,0.00858765,
1552,0.010376,0.00860596,
1554,0.0109863,0.0086731,
1556,0.00732422,0.0086731,
1558,-0.00671387,0.00858154,
1560,-0.020752,0.0086853,
1562,-0.00610352,0.0086853,
1564,0.00549316,0.00860596,
1566,-0.00915527,0.00859375,
1568,-0.012207,0.0085022,
1570,-0.00366211,0.00852661,
1572,0.00854492,0.00855103,
1574,-0.0140381,0.00853882,
1576,-0.00793457,0.00859985,
1578,-0.0012207,0.00859985,
1580,-0.00732422,0.00852051,
1582,-0.00366211,0.0085144,
1584,-0.010376,0.00856934,
1586,-0.0164795,0.0086792,
1588,-0.0134277,0.00877075,
1590,-0.00854492,0.00882568,
1592,-0.00305176,0.00881348,
1594,-0.00244141,0.00882568,
1596,-0.010376,0.00889893,
1598,-0.00793457,0.00896606,
1600,0,0.00888672,
1602,-0.0164795,0.00904541,
1604,-0.00488281,0.00898438,
1606,0.00427246,0.00900879,
1608,-0.0109863,0.00907593,
1610,-0.00427246,0.00908813,
1612,0.00244141,0.00905151,
1614,-0.00427246,0.00899048,
1616,-0.0128174,0.00905151,
1618,-0.00366211,0.00908203,
1620,-0.00732422,0.00912476,
1622,0.0213623,0.00922241,
1624,-0.00732422,0.00912476,
1626,-0.0152588,0.00903931,
1628,-0.012207,0.00907593,
1630,0.00305176,0.00907593,
1632,0.00366211,0.00899048,
1634,-0.00305176,0.00900269,
1636,-0.00671387,0.00900879,
1638,-0.0164795,0.00905762,
1640,0.000610352,0.00894775,
1642,-0.00183105,0.00892334,
1644,-0.00549316,0.00889893,
1646,-0.000610352,0.00880737,
1648,-0.00244141,0.00882568,
1650,0.00183105,0.00878296,
1652,0.00671387,0.00877075,
1654,-0.0140381,0.0086731,
1656,0.00549316,0.0086731,
1658,0.0262451,0.00886841,
1660,0.0170898,0.00897827,
1662,0.0170898,0.00900879,
1664,0.00244141,0.00898438,
1666,-0.00732422,0.00888672,
1668,-0.00305176,0.00879517,
1670,-0.0201416,0.00878906,
1672,-0.00854492,0.0086792,
1674,-0.0183105,0.00859375,
1676,-0.0372314,0.00890503,
1678,-0.0189209,0.00895386,
1680,-0.000610352,0.00869141,
1682,-0.0189209,0.00864868,
1684,-0.0177002,0.00877075,
1686,0.00427246,0.00875244,
1688,0.00366211,0.00866089,
1690,-0.00183105,0.00855713,
1692,-0.0286865,0.00879517,
1694,-0.012207,0.00881348,
1696,-0.00793457,0.0088623,
1698,-0.0109863,0.00890503,
1700,-0.0012207,0.00882568,
1702,-0.00244141,0.0088501,
1704,-0.0158691,0.00891113,
1706,-0.00610352,0.00891113,
1708,0.00183105,0.00877075,
1710,0.0164795,0.00872803,
1712,-0.0012207,0.00859985,
1714,-0.00793457,0.00848999,
1716,0.00854492,0.00848999,
1718,0.000610352,0.00848389,
1720,-0.000610352,0.00846558,
1722,0.0012207,0.00839233,
1724,0,0.00838623,
1726,-0.00915527,0.00838623,
1728,-0.00854492,0.00845337,
1730,-0.0115967,0.00853882,
1732,-0.00671387,0.00859375,
1734,0.00305176,0.00859375,
1736,0.00183105,0.00852661,
1738,-0.00244141,0.00839233,
1740,-0.00976563,0.00834961,
1742,-0.00976563,0.00837402,
1744,-0.00366211,0.00839844,
1746,-0.012207,0.00847168,
1748,-0.00793457,0.00853882,
1750,-0.00854492,0.0085022,
1752,-0.0012207,0.00841064,
1754,-0.00915527,0.00839233,
1756,0.00732422,0.00839233,
1758,-0.00244141,0.00834961,
1760,0.0170898,0.00831299,
1762,-0.00915527,0.00834351,
1764,-0.00610352,0.00834961,
1766,-0.0115967,0.00837402,
1768,-0.0146484,0.00839844,
1770,-0.0134277,0.00849609,
1772,-0.0115967,0.00852661,
1774,-0.00976563,0.00848389,
1776,-0.00366211,0.00844116,
1778,0.00488281,0.00847778,
1780,0.00610352,0.00846558,
1782,0.00183105,0.00844727,
1784,-0.00915527,0.00843506,
1786,0,0.00827026,
1788,0.0109863,0.00824585,
1790,-0.020752,0.00836792,
1792,-0.0152588,0.00848999,
1794,-0.0170898,0.00863647,
1796,-0.0128174,0.00866089,
1798,-0.0115967,0.00869751,
1800,-0.0299072,0.00899658,
1802,-0.010376,0.00893555,
1804,-0.0115967,0.00900269,
1806,-0.010376,0.00906372,
1808,0.00366211,0.00899048,
1810,-0.00305176,0.00897827,
1812,-0.0115967,0.00906982,
1814,-0.00915527,0.00911865,
1816,0.00671387,0.00905762,
1818,-0.00488281,0.00906982,
1820,0.00915527,0.00908813,
1822,0.00732422,0.00894775,
1824,-0.0140381,0.00901489,
1826,-0.0152588,0.00901489,
1828,-0.000610352,0.00889893,
1830,-0.000610352,0.00887451,
1832,0.000610352,0.00884399,
1834,0.00366211,0.0088501,
1836,-0.0115967,0.00889893,
1838,-0.0115967,0.0088501,
1840,-0.00671387,0.00891113,
1842,0.00244141,0.00891724,
1844,0.000610352,0.00886841,
1846,0.00244141,0.00888672,
1848,-0.00366211,0.00889893,
1850,-0.0146484,0.0090271,
1852,-0.000610352,0.00896606,
1854,0.00488281,0.00887451,
1856,0.00671387,0.00888672,
1858,0.00488281,0.0086731,
1860,0.00244141,0.00852661,
1862,0.00183105,0.00837402,
1864,0.00732422,0.00842285,
1866,0.00793457,0.00842896,
1868,-0.0256348,0.00865479,
1870,-0.00366211,0.00848999,
1872,0.0128174,0.00853271,
1874,-0.0238037,0.00858765,
1876,-0.0140381,0.00835571,
1878,0.012207,0.00828857,
1880,-0.00549316,0.0083374,
1882,-0.00732422,0.00822144,
1884,-0.0012207,0.00805664,
1886,-0.00244141,0.00803833,
1888,0.00732422,0.00807495,
1890,-0.0158691,0.00821533,
1892,-0.012207,0.00805054,
1894,-0.00671387,0.00799561,
1896,0.00244141,0.00794067,
1898,-0.0109863,0.00794067,
1900,-0.00610352,0.0079895,
1902,-0.00366211,0.00800171,
1904,-0.0115967,0.00795898,
1906,0.00305176,0.00792847,
1908,0.00427246,0.00795288,
1910,-0.00793457,0.00786743,
1912,0.00366211,0.00789185,
1914,0.0012207,0.00782471,
1916,-0.010376,0.00784302,
1918,0.00915527,0.00792847,
1920,-0.000610352,0.00792847,
1922,-0.0231934,0.00814819,
1924,-0.00549316,0.00820313,
1926,-0.0115967,0.00822754,
1928,0.0164795,0.00830688,
1930,-0.0109863,0.00830078,
1932,-0.0244141,0.00847778,
1934,-0.00427246,0.00848999,
1936,0,0.00847168,
1938,0.00305176,0.00847778,
1940,-0.0128174,0.0085083,
1942,-0.0109863,0.00852051,
1944,-0.00305176,0.0085144,
1946,-0.00915527,0.00848389,
1948,-0.0128174,0.00853271,
1950,-0.00244141,0.00847168,
1952,0.0012207,0.00847168,
1954,-0.000610352,0.00838623,
1956,-0.00244141,0.0083374,
1958,-0.0134277,0.00844727,
1960,0.00305176,0.00830688,
1962,0.0012207,0.00822754,
1964,-0.010376,0.00827026,
1966,0.00793457,0.00823364,
1968,0.00366211,0.00812378,
1970,0.0109863,0.00809937,
1972,0.0012207,0.00799561,
1974,0.00305176,0.00792847,
1976,0.0170898,0.00806274,
1978,-0.00366211,0.00805054,
1980,-0.00244141,0.00801392,
1982,0.00366211,0.00803223,
1984,-0.00854492,0.00802612,
1986,-0.0244141,0.00827026,
1988,-0.0134277,0.00829468,
1990,-0.00793457,0.0081665,
1992,0,0.00801392,
1994,0.00244141,0.00786743,
1996,-0.0109863,0.00784912,
1998,-0.0201416,0.00793457,
2000,-0.00366211,0.00767212,
2002,0.00793457,0.00764771,
2004,-0.00915527,0.00762329,
2006,-0.020752,0.00772705,
2008,-0.00976563,0.00778809,
2010,-0.0146484,0.00790405,
2012,0.0140381,0.00792847,
2014,-0.0128174,0.00796509,
2016,-0.012207,0.00802002,
2018,0.00305176,0.00800171,
2020,-0.00610352,0.00797119,
2022,0.0128174,0.00802612,
2024,-0.0140381,0.00802612,
2026,-0.00366211,0.00791016,
2028,0.0012207,0.00791626,
2030,-0.0109863,0.00802002,
2032,0.00610352,0.00807495,
2034,0.00305176,0.00806885,
2036,0.00427246,0.00799561,
2038,-0.00610352,0.00794067,
2040,0,0.00787354,
2042,0.00793457,0.00792847,
2044,0.00854492,0.00800781,
2046,-0.00488281,0.00803223,
2048,-0.0152588,0.00814819,
2050,0.0219727,0.00822144,
2052,-0.012207,0.0083374,
2054,-0.0250244,0.00853882,
2056,-0.00549316,0.00852661,
2058,-0.00915527,0.00856934,
2060,-0.00915527,0.00863647,
2062,-0.0109863,0.00872803,
2064,-0.00427246,0.00869751,
2066,-0.00549316,0.0086731,
2068,-0.00183105,0.00843506,
2070,-0.000610352,0.00840454,
2072,0.00549316,0.0083313,
2074,-0.0158691,0.00825195,
2076,0.00549316,0.0081665,
2078,0.00488281,0.00809326,
2080,-0.00732422,0.00811157,
2082,-0.0158691,0.00819702,
2084,0.00793457,0.00826416,
2086,0.0115967,0.00835571,
2088,0.00549316,0.0083374,
2090,0.0115967,0.00829468,
2092,0.0177002,0.00834961,
2094,-0.00244141,0.00830688,
2096,-0.000610352,0.00828857,
2098,-0.00793457,0.00825806,
2100,-0.0109863,0.00830688,
2102,-0.0109863,0.00838013,
2104,-0.0262451,0.00852661,
2106,-0.0158691,0.00865479,
2108,-0.0274658,0.00888672,
2110,-0.00610352,0.00886841,
2112,-0.00610352,0.00889282,
2114,-0.00183105,0.00889893,
2116,-0.00427246,0.00883789,
2118,0.00610352,0.00880737,
2120,-0.00915527,0.00889282,
2122,-0.00427246,0.00870361,
2124,-0.00610352,0.00870972,
2126,-0.00793457,0.0086731,
2128,-0.00610352,0.00856934,
2130,-0.0189209,0.00864868,
2132,-0.00854492,0.00848999,
2134,-0.00732422,0.00852051,
2136,0,0.00852051,
2138,-0.00366211,0.00852661,
2140,-0.012207,0.00852051,
2142,-0.00793457,0.00848999,
2144,-0.00183105,0.00847778,
2146,-0.00488281,0.00843506,
2148,-0.00854492,0.00839233,
2150,-0.00671387,0.00843506,
2152,-0.00793457,0.0085022,
2154,-0.0128174,0.00862427,
2156,0.00305176,0.00863037,
2158,-0.00427246,0.00853882,
2160,-0.0109863,0.00861816,
2162,-0.00549316,0.00866089,
2164,-0.00305176,0.00858765,
2166,0.00366211,0.00854492,
2168,-0.00854492,0.00859375,
2170,0.00305176,0.0085144,
2172,-0.00305176,0.00853271,
2174,-0.00427246,0.00854492,
2176,0.0195313,0.00856934,
2178,-0.00427246,0.00857544,
2180,-0.00366211,0.00858765,
2182,-0.00244141,0.00857544,
2184,0.0109863,0.00859985,
2186,0.00854492,0.00844116,
2188,-0.00366211,0.00834351,
2190,-0.0134277,0.00839844,
2192,0.00244141,0.00842285,
2194,0.00732422,0.00847168,
2196,0.00427246,0.00840454,
2198,0.00732422,0.00827637,
2200,0.000610352,0.00824585,
2202,0.00671387,0.00823364,
2204,0.00427246,0.00818481,
2206,0.00244141,0.00800171,
2208,0.00366211,0.00794067,
2210,-0.0134277,0.00792847,
2212,-0.0213623,0.00800171,
2214,-0.0256348,0.00812988,
2216,-0.0177002,0.00818481,
2218,-0.0213623,0.00836792,
2220,-0.0195313,0.0085022,
2222,-0.00305176,0.00840454,
2224,-0.0292969,0.00855713,
2226,-0.0183105,0.00870361,
2228,-0.0012207,0.00870361,
2230,-0.00793457,0.0086731,
2232,0.00549316,0.00866699,
2234,-0.00488281,0.0086853,
2236,-0.0115967,0.00875854,
2238,0.00671387,0.00876465,
2240,0.0152588,0.00891724,
2242,0.00671387,0.00890503,
2244,-0.0183105,0.00900269,
2246,-0.00427246,0.00899658,
2248,0.00366211,0.00888062,
2250,-0.0115967,0.00877686,
2252,-0.0140381,0.00879517,
2254,-0.00793457,0.00862427,
2256,-0.00976563,0.00866699,
2258,-0.0195313,0.00877075,
2260,-0.00183105,0.00869751,
2262,0.00488281,0.00863647,
2264,-0.00854492,0.0086792,
2266,-0.00305176,0.00865479,
2268,-0.00488281,0.0086853,
2270,-0.00793457,0.00875854,
2272,-0.00183105,0.00872192,
2274,-0.0140381,0.00870361,
2276,-0.00427246,0.00869141,
2278,0.00671387,0.00870972,
2280,-0.0183105,0.00881958,
2282,-0.00549316,0.00871582,
2284,0.00427246,0.0086792,
2286,0.00183105,0.00858154,
2288,0.00366211,0.00856323,
2290,0.0012207,0.00845947,
2292,0.0262451,0.00854492,
2294,0.00183105,0.00853882,
2296,-0.0250244,0.00878296,
2298,0.0109863,0.00881348,
2300,0.0140381,0.00884399,
2302,-0.0280762,0.00901489,
2304,-0.012207,0.00887451,
2306,-0.0256348,0.00897217,
2308,-0.0170898,0.00886841,
2310,-0.00793457,0.00888672,
2312,-0.00183105,0.00884399,
2314,-0.00610352,0.00888672,
2316,-0.00366211,0.00888062,
2318,-0.00549316,0.00887451,
2320,0.0134277,0.00891724,
2322,0.0134277,0.00900879,
2324,-0.0238037,0.00918579,
2326,-0.0213623,0.00932007,
2328,-0.0134277,0.00939331,
2330,-0.0128174,0.00933228,
2332,-0.010376,0.00935059,
2334,-0.0305176,0.00958252,
2336,-0.020752,0.00979004,
2338,-0.00976563,0.00985107,
2340,-0.00671387,0.00979614,
2342,-0.000610352,0.0097229,
2344,-0.00244141,0.009729,
2346,0.00183105,0.00969849,
2348,0.0164795,0.00977783,
2350,-0.00671387,0.00977783,
2352,-0.00305176,0.009729,
2354,-0.00427246,0.00964355,
2356,0.00427246,0.00965576,
2358,-0.00183105,0.00963135,
2360,-0.00305176,0.009552,
2362,-0.00427246,0.00953979,
2364,-0.00976563,0.00960693,
2366,-0.00366211,0.00960693,
2368,0.0012207,0.00953369,
2370,-0.00610352,0.00956421,
2372,0.00793457,0.00961304,
2374,-0.0115967,0.00968628,
2376,-0.00793457,0.00957031,
2378,0.0012207,0.00953979,
2380,0.00488281,0.009552,
2382,0.00427246,0.00957031,
2384,0.0134277,0.00959473,
2386,0.00671387,0.00957642,
2388,0.0134277,0.00967407,
2390,0.00427246,0.00958252,
2392,0.00610352,0.00961914,
2394,-0.00244141,0.00957031,
2396,-0.00244141,0.009552,
2398,-0.020752,0.00968628,
2400,-0.0238037,0.00991821,
2402,-0.0201416,0.0100525,
2404,-0.0268555,0.0102783,
2406,-0.0152588,0.0104065,
2408,-0.020752,0.0105774,
2410,-0.00793457,0.0105225,
2412,-0.00671387,0.010376,
2414,0,0.0101196,
2416,0.00854492,0.0100281,
2418,-0.012207,0.00993652,
2420,0.00854492,0.00982666,
2422,0.0146484,0.00994263,
2424,-0.00549316,0.00970459,
2426,-0.00610352,0.00958252,
2428,-0.00671387,0.00963745,
2430,-0.00793457,0.00963745,
2432,0.00366211,0.00961914,
2434,-0.0170898,0.00974121,
2436,-0.00427246,0.00966797,
2438,-0.00549316,0.00965576,
2440,-0.00976563,0.00960083,
2442,-0.00610352,0.00959473,
2444,-0.00183105,0.00942993,
2446,0.00488281,0.00943604,
2448,-0.00183105,0.00941772,
2450,-0.00183105,0.00932007,
2452,-0.010376,0.00928345,
2454,-0.0128174,0.00933228,
2456,-0.00549316,0.00928955,
2458,-0.00976563,0.00919189,
2460,-0.0183105,0.00935669,
2462,-0.00488281,0.00935669,
2464,-0.010376,0.009375,
2466,-0.0158691,0.00950317,
2468,-0.00793457,0.00953369,
2470,0.00366211,0.00949097,
2472,0.0115967,0.00958862,
2474,0.00732422,0.00952148,
2476,0.0012207,0.00949097,
2478,0.00732422,0.00949707,
2480,-0.00183105,0.00933228,
2482,0.0164795,0.00944214,
2484,-0.00610352,0.00946045,
2486,-0.00305176,0.00947266,
2488,-0.00915527,0.00952759,
2490,-0.00732422,0.00958862,
2492,-0.00427246,0.0093689,
2494,-0.0146484,0.00949707,
2496,0.00366211,0.00928345,
2498,-0.0152588,0.00932617,
2500,-0.020752,0.00939331,
2502,-0.00488281,0.00916138,
2504,-0.00244141,0.00906372,
2506,-0.0183105,0.00899048,
2508,-0.0213623,0.0090332,
2510,-0.0128174,0.00908203,
2512,-0.00183105,0.00908203,
2514,-0.00915527,0.00911255,
2516,0.00427246,0.00911865,
2518,0.0183105,0.00924683,
2520,0.0109863,0.00922241,
2522,0.0195313,0.00928345,
2524,-0.0134277,0.00917969,
2526,0.00366211,0.00900269,
2528,-0.00854492,0.00895386,
2530,-0.0012207,0.00883789,
2532,-0.0158691,0.00889282,
2534,-0.0274658,0.0088623,
2536,-0.0140381,0.00879517,
2538,-0.0115967,0.00881348,
2540,-0.0140381,0.00888672,
2542,-0.0146484,0.0090271,
2544,0,0.00900269,
2546,0.00793457,0.00906372,
2548,-0.0115967,0.00901489,
2550,-0.0115967,0.00906372,
2552,-0.000610352,0.00903931,
2554,-0.000610352,0.00900269,
2556,-0.00671387,0.0090271,
2558,-0.00976563,0.00910645,
2560,-0.00793457,0.00915527,
2562,0.0183105,0.00929565,
2564,0.00793457,0.00927734,
2566,0.0134277,0.009375,
2568,-0.00549316,0.00941772,
2570,-0.00366211,0.00939331,
2572,0.00488281,0.00936279,
2574,-0.00976563,0.00934448,
2576,-0.00610352,0.00932617,
2578,-0.020752,0.00952148,
2580,-0.0250244,0.0097229,
2582,-0.0177002,0.00985718,
2584,0.00488281,0.00977173,
2586,-0.00549316,0.00975952,
2588,0.00549316,0.00968018,
2590,-0.0012207,0.00964966,
2592,-0.00793457,0.00966797,
2594,0.00244141,0.00966797,
2596,0.00671387,0.00971069,
2598,0.0012207,0.00951538,
2600,0.00488281,0.00932617,
2602,-0.0262451,0.00938721,
2604,-0.0213623,0.00933228,
2606,0.00671387,0.00924683,
2608,-0.00610352,0.00910034,
2610,-0.00427246,0.00906372,
2612,-0.00549316,0.00905151,
2614,-0.0012207,0.00906372,
2616,-0.00976563,0.00907593,
2618,-0.0115967,0.00906982,
2620,-0.010376,0.00908813,
2622,0.0152588,0.00909424,
2624,-0.00732422,0.00911255,
2626,0.012207,0.00917358,
2628,-0.00244141,0.00913086,
2630,-0.00671387,0.00911865,
2632,0.00610352,0.00914307,
2634,-0.0115967,0.00908813,
2636,-0.000610352,0.00905151,
2638,-0.000610352,0.00900269,
2640,-0.010376,0.00900879,
2642,-0.0128174,0.00907593,
2644,-0.00244141,0.00908203,
2646,-0.00305176,0.00906372,
2648,0.00244141,0.00906982,
2650,-0.010376,0.00915527,
2652,0.0012207,0.00906372,
2654,-0.00244141,0.00895996,
2656,-0.00427246,0.00894775,
2658,-0.00915527,0.00894165,
2660,-0.0115967,0.00887451,
2662,0.0012207,0.00883789,
2664,-0.0219727,0.00895386,
2666,-0.00427246,0.00883789,
2668,-0.00976563,0.0088562,
2670,-0.00976563,0.00891724,
2672,0,0.00880127,
2674,-0.0115967,0.00884399,
2676,-0.00793457,0.00891113,
2678,0.0109863,0.00894775,
2680,-0.00244141,0.00895386,
2682,-0.00793457,0.00886841,
2684,-0.0012207,0.00881958,
2686,0.000610352,0.00879517,
2688,-0.00305176,0.00873413,
2690,-0.0177002,0.00883789,
2692,0.00610352,0.0088562,
2694,0.0012207,0.00872192,
2696,-0.0177002,0.0088623,
2698,0.00305176,0.00874023,
2700,0.000610352,0.00853882,
2702,0.0195313,0.0086853,
2704,-0.0012207,0.0086731,
2706,-0.0158691,0.00864868,
2708,-0.000610352,0.00844116,
2710,0.000610352,0.00831909,
2712,-0.00244141,0.0083252,
2714,-0.00610352,0.00829468,
2716,-0.0244141,0.00849609,
2718,-0.0244141,0.00855713,
2720,0.00915527,0.00853882,
2722,-0.00915527,0.00843506,
2724,-0.0128174,0.00842896,
2726,-0.00488281,0.00844116,
2728,-0.010376,0.00845947,
2730,0.00610352,0.0085083,
2732,0.0115967,0.00846558,
2734,-0.0012207,0.00820313,
2736,-0.0164795,0.00822754,
2738,-0.00183105,0.00812988,
2740,-0.00671387,0.00805664,
2742,-0.00488281,0.00795898,
2744,-0.00549316,0.00801392,
2746,-0.0146484,0.00808105,
2748,-0.0152588,0.00811768,
2750,-0.0219727,0.00822144,
2752,-0.010376,0.00831909,
2754,-0.00549316,0.00836792,
2756,-0.00366211,0.0083374,
2758,-0.00305176,0.00827026,
2760,-0.010376,0.00829468,
2762,0.00183105,0.00812988,
2764,0.0115967,0.0081665,
2766,0.0286865,0.00831909,
2768,0.00183105,0.00828247,
2770,-0.0146484,0.00839233,
2772,0.00549316,0.00839844,
2774,0.00854492,0.00838623,
2776,-0.00366211,0.00836182,
2778,-0.0170898,0.0083252,
2780,-0.0146484,0.00822144,
2782,-0.012207,0.0081665,
2784,-0.0140381,0.00825806,
2786,-0.000610352,0.00820923,
2788,-0.00610352,0.00821533,
2790,-0.0146484,0.00834961,
2792,-0.0146484,0.00841675,
2794,-0.00732422,0.00846558,
2796,-0.00976563,0.00849609,
2798,0.00244141,0.0085083,
2800,-0.010376,0.00856323,
2802,-0.0189209,0.00848999,
2804,0.00244141,0.00830078,
2806,-0.0012207,0.00824585,
2808,-0.00183105,0.00820313,
2810,-0.0012207,0.00817261,
2812,0.00976563,0.00821533,
2814,-0.010376,0.00830688,
2816,-0.00427246,0.00825195,
2818,-0.00427246,0.00817871,
2820,0.00427246,0.00811768,
2822,-0.012207,0.00808716,
2824,-0.00793457,0.00809326,
2826,0.0164795,0.00813599,
2828,0.00793457,0.00819092,
2830,-0.0256348,0.00838013,
2832,-0.0115967,0.00843506,
2834,0.010376,0.00842285,
2836,-0.00488281,0.00846558,
2838,-0.00549316,0.0085144,
2840,-0.0195313,0.00860596,
2842,-0.00915527,0.00856934,
2844,0,0.00854492,
2846,-0.00732422,0.00858765,
2848,0,0.00856323,
2850,-0.00671387,0.00852661,
2852,0.00793457,0.00859375,
2854,0.00793457,0.00864868,
2856,0.00732422,0.0086792,
2858,0.0158691,0.00874634,
2860,-0.00488281,0.0086792,
2862,0.00610352,0.00872803,
2864,-0.0195313,0.00870361,
2866,-0.000610352,0.00866699,
2868,-0.0146484,0.00871582,
2870,-0.00793457,0.00869751,
2872,-0.022583,0.00892334,
2874,-0.03479,0.00915527,
2876,-0.00854492,0.00916138,
2878,-0.0238037,0.00928955,
2880,0.0012207,0.00927734,
2882,0.00610352,0.00925903,
2884,-0.00427246,0.00928955,
2886,-0.000610352,0.00928955,
2888,-0.0115967,0.009375,
2890,0.00732422,0.00927124,
2892,0.00366211,0.00924683,
2894,-0.0115967,0.00935059,
2896,-0.00854492,0.00925903,
2898,-0.0146484,0.009375,
2900,-0.0115967,0.00948486,
2902,-0.00671387,0.00935669,
2904,-0.00610352,0.00940552,
2906,0.00427246,0.00928955,
2908,-0.00610352,0.00934448,
2910,-0.00305176,0.0093689,
2912,0.0012207,0.00935669,
2914,0.00244141,0.00932007,
2916,0.00854492,0.00916138,
2918,-0.00671387,0.00898438,
2920,-0.00549316,0.00894775,
2922,0.00610352,0.00891724,
2924,0.0012207,0.00880127,
2926,0.00976563,0.0088501,
2928,0.000610352,0.00875244,
2930,-0.00549316,0.00874634,
2932,0.00915527,0.00872192,
2934,0,0.00870972,
2936,-0.00427246,0.00858765,
2938,-0.00427246,0.00861206,
2940,-0.00732422,0.00861816,
2942,-0.00244141,0.00859375,
2944,-0.00915527,0.00863037,
2946,-0.0012207,0.00849609,
2948,0,0.00834351,
2950,0.0134277,0.00825806,
2952,0.0146484,0.00830078,
2954,0.0268555,0.0085144,
2956,0.00427246,0.00852051,
2958,-0.012207,0.00861206,
2960,0.012207,0.00863037,
2962,0.0012207,0.00862427,
2964,-0.00549316,0.00856323,
2966,-0.0164795,0.00844116,
2968,-0.020752,0.00863037,
2970,-0.00549316,0.00853882,
2972,0.0109863,0.00859375,
2974,-0.010376,0.00861206,
2976,-0.00366211,0.00861206,
2978,0.012207,0.00856323,
2980,-0.0158691,0.00857544,
2982,-0.00305176,0.00848389,
2984,-0.00671387,0.00841064,
2986,-0.0115967,0.00852051,
2988,-0.0109863,0.00856934,
2990,-0.0164795,0.00858765,
2992,-0.0164795,0.00860596,
2994,0.00244141,0.00855713,
2996,0,0.00845947,
2998,-0.00793457,0.0085144,
3000,-0.00183105,0.00842896,
3002,-0.00671387,0.00830688,
3004,-0.010376,0.00838623,
3006,0.00671387,0.00844116,
3008,-0.00488281,0.00847168,
3010,-0.00183105,0.00847778,
3012,0.00488281,0.00842896,
3014,0.000610352,0.0083313,
3016,-0.0012207,0.00830078,
3018,-0.00549316,0.00831299,
3020,-0.00183105,0.00828857,
3022,0.000610352,0.00817261,
3024,-0.00732422,0.0081665,
3026,-0.0109863,0.00811157,
3028,-0.00732422,0.00810547,
3030,-0.0170898,0.00802002,
3032,0.00610352,0.00796509,
3034,-0.00976563,0.00795898,
3036,-0.00305176,0.00794067,
3038,0.000610352,0.00789185,
3040,0.00549316,0.00775146,
3042,-0.00915527,0.00775146,
3044,0.00427246,0.00779419,
3046,0.00793457,0.00780029,
3048,0.0012207,0.0078125,
3050,0.00854492,0.00783081,
3052,-0.00366211,0.00778809,
3054,-0.0213623,0.00792236,
3056,-0.00183105,0.00786743,
3058,-0.00488281,0.00775757,
3060,-0.022583,0.00793457,
3062,-0.00244141,0.00789795,
3064,-0.0268555,0.00797119,
3066,-0.0213623,0.00817871,
3068,-0.00854492,0.00811768,
3070,-0.00427246,0.00808105,
3072,0.00427246,0.00789795,
3074,-0.00671387,0.00761719,
3076,-0.0152588,0.00768433,
3078,-0.00549316,0.00750122,
3080,-0.00854492,0.00757446,
3082,0.00610352,0.00757446,
3084,0.00305176,0.00756226,
3086,-0.0146484,0.00770264,
3088,-0.0164795,0.00775146,
3090,-0.00732422,0.00775146,
3092,0.00305176,0.00774536,
3094,-0.010376,0.00773315,
3096,0.00305176,0.00767822,
3098,0.0152588,0.00768433,
3100,0.000610352,0.00757446,
3102,0.0158691,0.00766602,
3104,-0.000610352,0.00761108,
3106,0.0109863,0.00767822,
3108,0.000610352,0.00762329,
3110,0.00183105,0.00761108,
3112,0.00732422,0.00767212,
3114,-0.0384521,0.00803223,
3116,-0.0183105,0.00812988,
3118,-0.0231934,0.00829468,
3120,-0.0134277,0.00837402,
3122,0.000610352,0.00831909,
3124,-0.0311279,0.00861816,
3126,-0.00366211,0.00855713,
3128,0.00854492,0.00863647,
3130,-0.00366211,0.00861816,
3132,0.00366211,0.00856323,
3134,0.0305176,0.00886841,
3136,0.0189209,0.00901489,
3138,0.0372314,0.00934448,
3140,-0.00366211,0.00930786,
3142,-0.0146484,0.00942993,
3144,-0.00366211,0.009375,
3146,-0.0177002,0.00953979,
3148,-0.0158691,0.00969849,
3150,-0.0396729,0.00996094,
3152,-0.0415039,0.0102295,
3154,-0.0366211,0.0103271,
3156,-0.0378418,0.0106628,
3158,-0.00671387,0.0106079,
3160,-0.0012207,0.010498,
3162,0.00244141,0.0105103,
3164,-0.012207,0.0105774,
3166,-0.00183105,0.0104309,
3168,-0.00366211,0.01026,
3170,0.0109863,0.0103149,
3172,-0.020752,0.0104126,
3174,0.000610352,0.0103149,
3176,0.0012207,0.0102905,
3178,0.00915527,0.01026,
3180,0.012207,0.0102234,
3182,0.00305176,0.0102234,
3184,-0.00427246,0.010199,
3186,0.00854492,0.0101685,
3188,-0.00671387,0.0101257,
3190,-0.0115967,0.0100769,
3192,-0.010376,0.0100159,
3194,-0.020752,0.010199,
3196,-0.0146484,0.0103455,
3198,-0.0268555,0.0105347,
3200,-0.00976563,0.010614,
3202,0.00244141,0.0105713,
3204,-0.0268555,0.0107361,
3206,-0.00610352,0.01073,
3208,-0.00427246,0.0107239,
3210,-0.0140381,0.0108459,
3212,0.00183105,0.0108154,
3214,0.00244141,0.0108337,
3216,-0.0128174,0.0109497,
3218,0.00915527,0.0109863,
3220,-0.00671387,0.0110352,
3222,0.000610352,0.0110352,
3224,-0.00366211,0.0109985,
3226,0.00732422,0.0109619,
3228,0.00671387,0.0109558,
3230,-0.00183105,0.0108032,
3232,0.012207,0.0108643,
3234,-0.0189209,0.0109558,
3236,0.00305176,0.0109558,
3238,0.0109863,0.0110596,
3240,-0.0213623,0.0112183,
3242,-0.0170898,0.0112976,
3244,-0.00915527,0.0113464,
3246,-0.0109863,0.011377,
3248,-0.0134277,0.011499,
3250,-0.00366211,0.0114502,
3252,0.00732422,0.0114868,
3254,-0.0201416,0.0114746,
3256,0.012207,0.0115784,
3258,-0.0109863,0.0116394,
3260,-0.00183105,0.0114319,
3262,-0.00915527,0.011499,
3264,-0.00549316,0.0112854,
3266,0,0.0110718,
3268,-0.00671387,0.0110535,
3270,-0.00915527,0.0111023,
3272,0.00244141,0.011084,
3274,-0.0201416,0.0112183,
3276,-0.00366211,0.0111023,
3278,-0.00488281,0.0110962,
3280,-0.022583,0.0112366,
3282,-0.012207,0.0112976,
3284,-0.0134277,0.0114014,
3286,-0.00183105,0.0112732,
3288,0.00488281,0.0111572,
3290,-0.00183105,0.0111023,
3292,-0.000610352,0.0110779,
3294,-0.00183105,0.0109924,
3296,-0.00305176,0.0109924,
3298,0.00183105,0.0108582,
3300,-0.0177002,0.0110291,
3302,-0.0128174,0.0109985,
3304,-0.00549316,0.0110474,
3306,-0.0177002,0.0111145,
3308,-0.0109863,0.0112183,
3310,-0.00976563,0.0112976,
3312,0,0.0112244,
3314,-0.00183105,0.0108582,
3316,0.00366211,0.0107117,
3318,0,0.0104797,
3320,0.00305176,0.010376,
3322,0.0115967,0.0104858,
3324,0.00427246,0.0102173,
3326,-0.00854492,0.0102661,
3328,-0.00366211,0.0102173,
3330,-0.0292969,0.0104736,
3332,0.00183105,0.0104553,
3334,-0.00549316,0.0102051,
3336,-0.0189209,0.0102051,
3338,-0.0140381,0.00997314,
3340,0,0.00993652,
3342,-0.00366211,0.00982666,
3344,-0.00305176,0.00982056,
3346,0.00793457,0.0097229,
3348,-0.00854492,0.00964966,
3350,0.0012207,0.00926514,
3352,0,0.0088501,
3354,-0.00793457,0.00856323,
3356,0,0.00818481,
3358,-0.00366211,0.0081543,
3360,0.00610352,0.00820313,
3362,0,0.00817871,
3364,-0.00488281,0.00810547,
3366,-0.00549316,0.00814209,
3368,0.00244141,0.00812988,
3370,-0.00183105,0.00803833,
3372,0.00488281,0.00787964,
3374,-0.0170898,0.00804443,
3376,-0.00427246,0.00807495,
3378,-0.00183105,0.00800171,
3380,0.00610352,0.00794067,
3382,-0.00244141,0.00793457,
3384,0.010376,0.00799561,
3386,0.00732422,0.0079834,
3388,-0.0183105,0.00809937,
3390,-0.00183105,0.00800171,
3392,0.00427246,0.00794067,
3394,-0.0152588,0.00788574,
3396,-0.0115967,0.00785522,
3398,-0.0128174,0.00771484,
3400,-0.00610352,0.00767822,
3402,-0.00732422,0.00772705,
3404,-0.0128174,0.00758667,
3406,-0.00427246,0.00756836,
3408,0.00915527,0.00761719,
3410,-0.00671387,0.00754395,
3412,-0.00183105,0.00754395,
3414,0.00427246,0.00756226,
3416,-0.00427246,0.00747681,
3418,0.00183105,0.00740356,
3420,-0.00793457,0.00741577,
3422,-0.00976563,0.00750732,
3424,-0.00671387,0.00753784,
3426,0.00549316,0.00751953,
3428,0.00793457,0.00753174,
3430,-0.0177002,0.00769043,
3432,-0.00305176,0.00759888,
3434,0.012207,0.00753174,
3436,-0.0140381,0.0076416,
3438,-0.00610352,0.00759277,
3440,-0.0170898,0.00755005,
3442,-0.00732422,0.00745239,
3444,-0.0140381,0.00750122,
3446,-0.00915527,0.00748291,
3448,-0.00671387,0.00741577,
3450,-0.0140381,0.00751953,
3452,-0.00488281,0.00749512,
3454,-0.0012207,0.00730591,
3456,0.012207,0.00730591,
3458,-0.00671387,0.00726318,
3460,-0.000610352,0.00725098,
3462,-0.00183105,0.00717773,
3464,-0.00366211,0.00715942,
3466,0.0012207,0.00717163,
3468,-0.010376,0.00720825,
3470,-0.00732422,0.00718994,
3472,0.0164795,0.00733032,
3474,0.00183105,0.00714722,
3476,-0.00732422,0.00718384,
3478,-0.00244141,0.00715942,
3480,-0.010376,0.00703735,
3482,0.010376,0.00701904,
3484,0.00610352,0.0069458,
3486,0,0.00692749,
3488,-0.0109863,0.00698853,
3490,0,0.00697021,
3492,0.00671387,0.00703125,
3494,0.0109863,0.0071228,
3496,0,0.00709229,
3498,-0.0115967,0.00718994,
3500,-0.00366211,0.00704956,
3502,-0.00549316,0.00697632,
3504,-0.0012207,0.00693359,
3506,-0.010376,0.00686035,
3508,-0.00549316,0.00680542,
3510,-0.0115967,0.00682373,
3512,-0.0146484,0.00697021,
3514,-0.00549316,0.00700684,
3516,-0.00976563,0.00706787,
3518,-0.00427246,0.0071106,
3520,0.00183105,0.00709839,
3522,-0.00305176,0.00701294,
3524,-0.00671387,0.00703735,
3526,0.0164795,0.0071167,
3528,0.0183105,0.00726318,
3530,-0.00793457,0.00704956,
3532,-0.00305176,0.00706177,
3534,0.00183105,0.00702515,
3536,-0.0012207,0.00684814,
3538,-0.00732422,0.00678101,
3540,-0.0262451,0.00704346,
3542,-0.0213623,0.00722046,
3544,-0.0134277,0.00732422,
3546,-0.00976563,0.00734253,
3548,-0.00976563,0.00735474,
3550,-0.00671387,0.00740967,
3552,-0.000610352,0.00741577,
3554,-0.00793457,0.00741577,
3556,-0.00366211,0.00745239,
3558,0.00305176,0.00744629,
3560,0.00427246,0.00742798,
3562,0.0146484,0.00757446,
3564,-0.00671387,0.00759277,
3566,-0.0177002,0.00771484,
3568,0.00549316,0.00774536,
3570,0.0128174,0.00785522,
3572,-0.00854492,0.00789185,
3574,-0.00549316,0.00777588,
3576,0.00793457,0.0078125,
3578,0.0115967,0.00791016,
3580,0,0.00784912,
3582,0.00366211,0.00786133,
3584,-0.00427246,0.00780029,
3586,-0.00610352,0.00778809,
3588,0.00488281,0.00765381,
3590,-0.00915527,0.00772705,
3592,-0.00305176,0.00771484,
3594,-0.0250244,0.0078125,
3596,-0.00244141,0.00772095,
3598,-0.0128174,0.00772095,
3600,-0.00671387,0.00772705,
3602,-0.00488281,0.00770264,
3604,-0.00976563,0.00767212,
3606,-0.00610352,0.00769043,
3608,-0.0134277,0.00773315,
3610,-0.010376,0.00776978,
3612,-0.00183105,0.00776978,
3614,-0.0140381,0.00786743,
3616,-0.0115967,0.00794067,
3618,0.00976563,0.00802002,
3620,0.0128174,0.00806885,
3622,0.0128174,0.00809937,
3624,0.00305176,0.00806274,
3626,0.00671387,0.00807495,
3628,-0.00732422,0.00806885,
3630,0.00366211,0.00792847,
3632,0.00427246,0.00794067,
3634,-0.00488281,0.00786743,
3636,-0.0115967,0.00784302,
3638,-0.0146484,0.00792847,
3640,-0.0158691,0.00791626,
3642,-0.00244141,0.00786743,
3644,-0.00549316,0.00778198,
3646,0.00610352,0.00775146,
3648,0,0.00768433,
3650,-0.00854492,0.00762939,
3652,0.0012207,0.00759277,
3654,0.0134277,0.00771484,
3656,0.0146484,0.00773926,
3658,0.00854492,0.00775757,
3660,0.0109863,0.00786133,
3662,0.00549316,0.00789795,
3664,-0.0109863,0.00797119,
3666,-0.00549316,0.00801392,
3668,0.00305176,0.00794067,
3670,-0.00610352,0.00792847,
3672,-0.0177002,0.00794067,
3674,-0.0170898,0.00809326,
3676,-0.0140381,0.0081604,
3678,0,0.00813599,
3680,0.00732422,0.00810547,
3682,0.00305176,0.00803223,
3684,0.000610352,0.00797729,
3686,-0.00183105,0.00799561,
3688,0.00732422,0.00795898,
3690,-0.00976563,0.00805664,
3692,-0.000610352,0.00799561,
3694,-0.0164795,0.00805054,
3696,-0.00854492,0.00813599,
3698,-0.0146484,0.0081665,
3700,-0.0201416,0.0083313,
3702,-0.000610352,0.00828247,
3704,-0.0146484,0.00841675,
3706,0,0.00831299,
3708,-0.00244141,0.00828247,
3710,-0.00305176,0.00819702,
3712,0.0164795,0.00821533,
3714,0.0158691,0.00831909,
3716,-0.00915527,0.00831299,
3718,-0.00854492,0.00835571,
3720,-0.00183105,0.00835571,
3722,0.00427246,0.00836792,
3724,-0.0195313,0.00849609,
3726,0,0.0083313,
3728,-0.00915527,0.00823975,
3730,0.00610352,0.00822144,
3732,-0.00976563,0.00828857,
3734,-0.00488281,0.00831909,
3736,-0.0250244,0.00855713,
3738,0.0183105,0.00866699,
3740,-0.00305176,0.00843506,
3742,-0.020752,0.00842896,
3744,-0.0146484,0.00844116,
3746,-0.00366211,0.00838013,
3748,-0.00732422,0.00835571,
3750,-0.0164795,0.00845337,
3752,-0.000610352,0.00845337,
3754,-0.00305176,0.00840454,
3756,-0.00671387,0.00843506,
3758,0.00915527,0.00849609,
3760,0.00305176,0.00848389,
3762,0.00427246,0.00838013,
3764,-0.0115967,0.00842896,
3766,-0.00427246,0.00829468,
3768,0.0109863,0.00834961,
3770,0.00366211,0.00825806,
3772,-0.00732422,0.00824585,
3774,-0.00854492,0.00827637,
3776,-0.0177002,0.00837402,
3778,-0.0134277,0.00839233,
3780,-0.0115967,0.0085083,
3782,-0.00366211,0.0085083,
3784,-0.0115967,0.00858154,
3786,0.00183105,0.00853882,
3788,-0.00305176,0.00852051,
3790,0.00854492,0.0085144,
3792,0.000610352,0.00848999,
3794,-0.0177002,0.00841675,
3796,-0.0012207,0.00840454,
3798,0.00976563,0.00837402,
3800,-0.0134277,0.00844116,
3802,-0.00610352,0.00845337,
3804,-0.0115967,0.00847168,
3806,-0.0177002,0.00858765,
3808,-0.00366211,0.00848999,
3810,0.00244141,0.00841064,
3812,0.0201416,0.00859375,
3814,-0.0158691,0.00861206,
3816,0,0.00849609,
3818,-0.00549316,0.00845337,
3820,-0.00244141,0.00834961,
3822,-0.00854492,0.00830688,
3824,-0.00976563,0.00837402,
3826,-0.0201416,0.0085083,
3828,-0.0012207,0.00844727,
3830,-0.020752,0.00861816,
3832,0.00549316,0.00863037,
3834,0.010376,0.0086853,
3836,0.0158691,0.00872803,
3838,0.0244141,0.00882568,
3840,-0.0177002,0.00884399,
3842,-0.00427246,0.0088623,
3844,-0.000610352,0.00881348,
3846,-0.00793457,0.00883179,
3848,-0.0183105,0.00901489,
3850,-0.0170898,0.00910034,
3852,-0.0170898,0.00925903,
3854,-0.0384521,0.00950928,
3856,-0.00976563,0.00946045,
3858,0.0012207,0.00938721,
3860,-0.00549316,0.00933228,
3862,-0.00183105,0.00929565,
3864,0.0134277,0.00932007,
3866,0.010376,0.0093689,
3868,-0.012207,0.00946045,
3870,-0.00793457,0.00947876,
3872,0.00610352,0.00936279,
3874,-0.00549316,0.00924683,
3876,-0.00305176,0.00913696,
3878,-0.0219727,0.00935669,
3880,-0.0238037,0.00952148,
3882,-0.0128174,0.00961914,
3884,-0.0158691,0.00977173,
3886,-0.00305176,0.00978394,
3888,-0.00610352,0.00977173,
3890,-0.00244141,0.00969849,
3892,-0.00610352,0.00975342,
3894,0.0012207,0.00960083,
3896,0.00244141,0.00953979,
3898,-0.00305176,0.00942383,
3900,0.00366211,0.00925903,
3902,0.00549316,0.00930786,
3904,-0.0183105,0.00934448,
3906,0.00488281,0.00939331,
3908,0,0.0093689,
3910,0.00488281,0.00938721,
3912,-0.00305176,0.00925293,
3914,-0.00671387,0.00916138,
3916,-0.0134277,0.0092041,
3918,-0.00183105,0.00913696,
3920,0.0317383,0.00943604,
3922,0.0415039,0.00980835,
3924,0.0787354,0.0104004,
3926,0.0939941,0.0113403,
3928,0.12146,0.0124634,
3930,0.127563,0.013678,
3932,0.0744629,0.014325,
3934,0.0793457,0.0150696,
3936,0.0317383,0.0151367,
3938,0.00671387,0.0150208,
3940,-0.0231934,0.0152222,
3942,-0.0469971,0.0154846,
3944,-0.0683594,0.0160217,
3946,-0.0543213,0.0165283,
3948,-0.0274658,0.0167297,
3950,-0.00488281,0.0166138,
3952,0.0231934,0.0168396,
3954,0.0476074,0.0172852,
3956,0.045166,0.0176697,
3958,0.0598145,0.0181763,
3960,0.0396729,0.0185425,
3962,0.0799561,0.0192993,
3964,0.0390625,0.019574,
3966,0.0158691,0.0196899,
3968,0.000610352,0.0195862,
3970,0.0445557,0.0199951,
3972,0.00915527,0.0200134,
3974,0.00854492,0.0200134,
3976,0.0213623,0.02005,
3978,0.00854492,0.0200012,
3980,-0.0549316,0.0204346,
3982,-0.0622559,0.0210205,
3984,-0.0299072,0.0212036,
3986,-0.00305176,0.0212158,
3988,-0.00183105,0.0212036,
3990,-0.0341797,0.02146,
3992,0.0140381,0.0215942,
3994,0.0335693,0.0217529,
3996,0.0726318,0.022467,
3998,0.106812,0.0234375,
4000,0.0762939,0.0240662,
4002,0.128174,0.0252869,
4004,0.0927734,0.0260986,
4006,0.0952148,0.0268738,
4008,0.0549316,0.0273865,
4010,-0.00366211,0.0273987,
4012,0.020752,0.0274048,
4014,0.0341797,0.0275879,
4016,0.0183105,0.027771,
4018,0.0616455,0.0283325,
4020,0.0970459,0.0292786,
4022,0.140381,0.0305969,
4024,0.183716,0.0323364,
4026,0.189819,0.0340332,
4028,0.181885,0.0358398,
4030,0.0665283,0.0362976,
4032,-0.00793457,0.036322,
4034,-0.0134277,0.0363525,
4036,-0.0244141,0.036438,
4038,-0.151367,0.0377075,
4040,-0.149536,0.0390259,
4042,-0.067749,0.0396606,
4044,-0.0646973,0.0403015,
4046,0.0109863,0.040332,
4048,0.0494385,0.0406433,
4050,0.03479,0.0408203,
4052,-0.0134277,0.0407837,
4054,-0.103149,0.0414307,
4056,-0.109863,0.0424316,
4058,-0.0811768,0.0432312,
4060,-0.166626,0.0448425,
4062,-0.130005,0.0461243,
4064,-0.166626,0.0476562,
4066,-0.119019,0.0487427,
4068,0.0482178,0.0491028,
4070,0.0506592,0.04953,
4072,0.0939941,0.0504089,
4074,0.141602,0.05177,
4076,0.0946045,0.0526855,
4078,0.0170898,0.0526367,
4080,0.020752,0.0526062,
4082,-0.045166,0.0529297,
4084,-0.0238037,0.053009,
4086,-0.0970459,0.053949,
4088,-0.106812,0.0549561,
4090,-0.10498,0.0559814,
4092,-0.133057,0.057251,
4094,0.0439453,0.0576782,
4096,-0.00732422,0.0577271,
4098,0.0189209,0.0578857,
4100,0.115967,0.0590088,
4102,0.0939941,0.0598938,
4104,0.0897217,0.0606079,
4106,-0.0598145,0.0611572,
4108,-0.0335693,0.0614929,
4110,-0.00671387,0.0615112,
4112,-0.0354004,0.0618347,
4114,0.0427246,0.0621948,
4116,-0.0561523,0.0626221,
4118,-0.0732422,0.0633362,
4120,-0.183716,0.064856,
4122,-0.0915527,0.0653564,
4124,-0.00305176,0.0645996,
4126,-0.00427246,0.0637024,
4128,-0.0457764,0.0629456,
4130,-0.0512695,0.0621826,
4132,0.0231934,0.0616699,
4134,-0.0665283,0.0615417,
4136,0.0305176,0.0615295,
4138,0.12207,0.0626831,
4140,0.112305,0.0635742,
4142,-0.0842285,0.0639465,
4144,-0.0500488,0.0637634,
4146,-0.0915527,0.0641357,
4148,-0.00427246,0.0639038,
4150,0.0445557,0.0643005,
4152,0.0366211,0.0644348,
4154,-0.0762939,0.0647217,
4156,-0.0939941,0.06521,
4158,0.0756836,0.0653687,
4160,0.0640869,0.0656128,
4162,0.057373,0.065387,
4164,-0.0549316,0.0655457,
4166,-0.0366211,0.0657532,
4168,-0.0823975,0.066571,
4170,0.00915527,0.066217,
4172,-0.0262451,0.0663879,
4174,-0.0592041,0.0668945,
4176,-0.0115967,0.0667969,
4178,0.0390625,0.0671021,
4180,0.0476074,0.0670288,
4182,0.0427246,0.0668335,
4184,-0.0286865,0.0668213,
4186,0.0701904,0.0674927,
4188,0.131836,0.0687927,
4190,0.0268555,0.0687195,
4192,-0.045166,0.0690308,
4194,-0.105591,0.069751,
4196,-0.0488281,0.0695129,
4198,0.00427246,0.0684875,
4200,-0.0512695,0.0682373,
4202,-0.154419,0.0684998,
4204,-0.0378418,0.0679504,
4206,-0.0805664,0.067804,
4208,-0.0671387,0.067926,
4210,0.0518799,0.0684082,
4212,0.0280762,0.0684814,
4214,0.00244141,0.0681641,
4216,0.00305176,0.0680115,
4218,0.0231934,0.067627,
4220,0.0689697,0.0673462,
4222,0.0811768,0.0667542,
4224,0.0610352,0.0655273,
4226,0.0195313,0.0638245,
4228,-0.078125,0.0627869,
4230,0.0616455,0.062738,
4232,0.0134277,0.062793,
4234,-0.0439453,0.0630981,
4236,-0.0738525,0.0635925,
4238,-0.181885,0.0638977,
4240,-0.0115967,0.0625183,
4242,0.00549316,0.0618958,
4244,0.055542,0.0618042,
4246,0.045166,0.062146,
4248,0.00854492,0.0617371,
4250,0.0012207,0.0614014,
4252,0.0891113,0.0621582,
4254,0.0823975,0.0619507,
4256,-0.0244141,0.0610962,
4258,0.010376,0.0603882,
4260,-0.141602,0.0601379,
4262,-0.03479,0.0591858,
4264,0.0274658,0.0577942,
4266,0.00976563,0.0567017,
4268,-0.065918,0.0568787,
4270,-0.0543213,0.0569153,
4272,0.106201,0.0570374,
4274,-0.00732422,0.0556946,
4276,-0.113525,0.0558838,
4278,-0.0848389,0.0565613,
4280,-0.0549316,0.0569031,
4282,-0.0799561,0.057251,
4284,-0.106201,0.058075,
4286,-0.0646973,0.0577515,
4288,-0.0604248,0.0572876,
4290,-0.0262451,0.0565002,
4292,0.0506592,0.0556763,
4294,-0.00366211,0.0552734,
4296,-0.0244141,0.0554443,
4298,0.0872803,0.0561279,
4300,0.0848389,0.0558167,
4302,0.0183105,0.0550598,
4304,0.0476074,0.0546387,
4306,0.00183105,0.0540588,
4308,-0.0354004,0.0540771,
4310,-0.0524902,0.0545349,
4312,-0.0012207,0.0541931,
4314,-0.022583,0.0539917,
4316,-0.0286865,0.053717,
4318,0.0396729,0.0533813,
4320,-0.022583,0.05177,
4322,-0.0695801,0.0515503,
4324,0.0482178,0.052002,
4326,0.00854492,0.0520447,
4328,-0.00915527,0.0516785,
4330,-0.0244141,0.0514099,
4332,-0.0280762,0.0514587,
4334,-0.000610352,0.0507996,
4336,-0.0262451,0.0507568,
4338,-0.0549316,0.0500854,
4340,0.0170898,0.0491333,
4342,0.0488281,0.0487793,
4344,0.00915527,0.0483704,
4346,-0.0598145,0.048053,
4348,-0.0158691,0.0481689,
4350,-0.0384521,0.0481079,
4352,-0.0250244,0.0479919,
4354,-0.0463867,0.0476929,
4356,-0.03479,0.0471008,
4358,-0.0402832,0.0467468,
4360,0.0183105,0.0462891,
4362,0.0933838,0.0466492,
4364,0.00732422,0.0461731,
4366,-0.0531006,0.0463379,
4368,0.0305176,0.0458191,
4370,-0.0231934,0.0459595,
4372,0.0323486,0.0460205,
4374,-0.0567627,0.0459961,
4376,0.0256348,0.0461365,
4378,0.00183105,0.0457642,
4380,-0.0708008,0.0459961,
4382,0.0128174,0.045697,
4384,0.0476074,0.0458862,
4386,0.0299072,0.0454834,
4388,-0.0109863,0.0442749,
4390,-0.0238037,0.0442444,
4392,0.0335693,0.0441284,
4394,0.0115967,0.0431885,
4396,-0.0439453,0.0431396,
4398,0.0231934,0.0433289,
4400,0.0231934,0.0430481,
4402,-0.0488281,0.0419922,
4404,0.0915527,0.0425293,
4406,0.0372314,0.0420959,
4408,0.0164795,0.0415894,
4410,-0.0720215,0.0417908,
4412,-0.022583,0.0417358,
4414,-0.00183105,0.0417297,
4416,-0.0238037,0.0419373,
4418,-0.114136,0.0428467,
4420,-0.119019,0.0433472,
4422,0.0390625,0.042926,
4424,0.0378418,0.0426941,
4426,-0.0878906,0.0433777,
4428,0.0262451,0.0428589,
4430,0.0604248,0.0428467,
4432,0.0128174,0.0428406,
4434,-0.0231934,0.0426331,
4436,-0.0292969,0.0421875,
4438,0.0164795,0.0405334,
4440,-0.0219727,0.0406372,
4442,-0.0714111,0.0412964,
4444,-0.00915527,0.0408325,
4446,-0.0280762,0.0406616,
4448,0.0817871,0.041394,
4450,0.012207,0.0415039,
4452,-0.0354004,0.0409668,
4454,0.0213623,0.0403564,
4456,0.067749,0.0407898,
4458,0.00915527,0.0407776,
4460,0.0616455,0.039978,
4462,-0.0170898,0.039801,
4464,-0.0213623,0.03974,
4466,0.0012207,0.0396545,
4468,0.00610352,0.0390564,
4470,-0.0482178,0.0389954,
4472,-0.0476074,0.0384094,
4474,-0.0640869,0.0389771,
4476,-0.130615,0.0391479,
4478,-0.0469971,0.0387695,
4480,-0.0604248,0.0388245,
4482,-0.0250244,0.0382751,
4484,0.0146484,0.0373596,
4486,0.00976563,0.0368103,
4488,0.0286865,0.0364929,
4490,0.102539,0.0372559,
4492,-0.0457764,0.037207,
4494,0.0701904,0.0378723,
4496,0.123901,0.0388672,
4498,0.217896,0.0401733,
4500,0.118408,0.040509,
4502,-0.0280762,0.0406067,
4504,-0.0134277,0.0402649,
4506,-0.0250244,0.0404968,
4508,0.0354004,0.0404968,
4510,0.0286865,0.0402588,
4512,-0.0366211,0.0406128,
4514,-0.0927734,0.0413147,
4516,-0.0872803,0.0419006,
4518,-0.0628662,0.0421326,
4520,-0.0012207,0.0419189,
4522,-0.0390625,0.0416138,
4524,0.0158691,0.0412903,
4526,0.0244141,0.041449,
4528,-0.0549316,0.0419067,
4530,-0.0732422,0.042395,
4532,-0.0299072,0.0424133,
4534,0.0128174,0.0425354,
4536,-0.0512695,0.0427856,
4538,-0.0274658,0.042511,
4540,-0.00549316,0.042395,
4542,-0.0549316,0.0424561,
4544,-0.0408936,0.0427734,
4546,-0.0506592,0.0426819,
4548,0.0469971,0.0429932,
4550,0.0787354,0.043396,
4552,-0.147095,0.0446167,
4554,0.00305176,0.0441833,
4556,0.0549316,0.0443848,
4558,0.000610352,0.043988,
4560,-0.00427246,0.0438477,
4562,-0.0299072,0.0432129,
4564,0.00976563,0.0432373,
4566,0.0164795,0.0428711,
4568,-0.00671387,0.0426331,
4570,0.0390625,0.0427917,
4572,0.0366211,0.0428345,
4574,0.0531006,0.0427979,
4576,-0.0366211,0.0429077,
4578,-0.0213623,0.043103,
4580,0.0500488,0.0428955,
4582,0.0598145,0.0433655,
4584,0.0286865,0.0431763,
4586,-0.0689697,0.0435669,
4588,0.10498,0.0445068,
4590,0.0415039,0.0446838,
4592,-0.0445557,0.0447937,
4594,-0.0598145,0.0452759,
4596,0.0140381,0.0449768,
4598,0.0488281,0.0452332,
4600,-0.0537109,0.0455383,
4602,-0.0665283,0.0457153,
4604,-0.0262451,0.0450623,
4606,0.0384521,0.0450745,
4608,-0.0646973,0.0455566,
4610,0.00244141,0.0448608,
4612,0.0567627,0.0452026,
4614,-0.0622559,0.0458069,
4616,-0.0976563,0.0465454,
4618,0.0567627,0.0459717,
4620,0.043335,0.0452148,
4622,0.0830078,0.0456543,
4624,-0.00427246,0.0453186,
4626,-0.0982666,0.0454224,
4628,0.0744629,0.0459045,
4630,0.0341797,0.0456421,
4632,-0.0695801,0.0462097,
4634,-0.0952148,0.0469299,
4636,-0.0286865,0.0469238,
4638,-0.0231934,0.046991,
4640,-0.0408936,0.0471802,
4642,-0.0250244,0.0467163,
4644,0.0463867,0.0470886,
4646,-0.0506592,0.0473145,
4648,0.0427246,0.0469238,
4650,0.0439453,0.0472412,
4652,0.0708008,0.0475952,
4654,0.0311279,0.0476929,
4656,0.00854492,0.0471008,
4658,0.0189209,0.0471985,
4660,-0.0195313,0.0467773,
4662,-0.0183105,0.0467896,
4664,-0.00305176,0.0466064,
4666,0.012207,0.0467163,
4668,-0.111694,0.0477722,
4670,-0.0305176,0.0475952,
4672,-0.0561523,0.0476807,
4674,0.0653076,0.0476929,
4676,-0.0982666,0.0473694,
4678,-0.0109863,0.0470093,
4680,0.000610352,0.0464111,
4682,0.0268555,0.0464294,
4684,-0.010376,0.0463867,
4686,-0.0134277,0.0464233,
4688,0.0549316,0.0466858,
4690,0.0830078,0.0464905,
4692,-0.15564,0.0475891,
4694,0.055542,0.0474426,
4696,0.0311279,0.0465149,
4698,-0.0512695,0.0448486,
4700,0.000610352,0.0436707,
4702,-0.0543213,0.0439331,
4704,-0.0317383,0.0441162,
4706,-0.0585938,0.0444519,
4708,-0.0183105,0.044281,
4710,0.0366211,0.0443604,
4712,-0.00793457,0.0440735,
4714,-0.100708,0.0441528,
4716,-0.0244141,0.0435242,
4718,0.00305176,0.042926,
4720,0.0250244,0.0431641,
4722,0.0152588,0.042926,
4724,0.03479,0.0431152,
4726,0.0891113,0.0437622,
4728,0.0177002,0.0433899,
4730,0.00366211,0.0426941,
4732,-0.0292969,0.042688,
4734,0.0463867,0.0430237,
4736,0.00183105,0.0425293,
4738,-0.100708,0.0432617,
4740,-0.0958252,0.044165,
4742,-0.0396729,0.0440125,
4744,-0.022583,0.0438293,
4746,-0.065918,0.0439819,
4748,0.0494385,0.0440063,
4750,0.0341797,0.0435608,
4752,0.0805664,0.0428955,
4754,0.057373,0.0434387,
4756,0.0238037,0.0431274,
4758,-0.0518799,0.0436401,
4760,0.0524902,0.0441223,
4762,-0.0476074,0.0442993,
4764,0,0.0442017,
4766,-0.022583,0.0442627,
4768,-0.0152588,0.0443481,
4770,-0.0341797,0.0442993,
4772,-0.0585938,0.044519,
4774,-0.0213623,0.0442017,
4776,0.0305176,0.0441406,
4778,0.0286865,0.0442139,
4780,0.00854492,0.0437988,
4782,0.0445557,0.0436462,
4784,0.010376,0.0434631,
4786,-0.0476074,0.0432495,
4788,-0.0109863,0.0423096,
4790,0.0476074,0.0423706,
4792,0.0476074,0.0424011,
4794,-0.0238037,0.042041,
4796,-0.0408936,0.0423096,
4798,0.0622559,0.0424438,
4800,-0.0732422,0.0426392,
4802,-0.0262451,0.0422363,
4804,-0.0164795,0.0421387,
4806,-0.00732422,0.0418274,
4808,-0.0146484,0.0413269,
4810,0.0512695,0.0418152,
4812,-0.0323486,0.041571,
4814,-0.010376,0.0410522,
4816,-0.0335693,0.0404114,
4818,0.0158691,0.0400024,
4820,0.0201416,0.0397705,
4822,0.012207,0.0390625,
4824,-0.067749,0.0396973,
4826,-0.045166,0.0391663,
4828,-0.0531006,0.0389526,
4830,-0.0549316,0.0391602,
4832,0.00732422,0.0385376,
4834,0.00488281,0.0376343,
4836,-0.0012207,0.0373596,
4838,0.03479,0.0374756,
4840,0.00183105,0.037085,
4842,0.0109863,0.0369446,
4844,-0.010376,0.0365845,
4846,0.0628662,0.0367065,
4848,0.0585938,0.0368652,
4850,0.0115967,0.0365417,
4852,-0.114136,0.0369751,
4854,0.0616455,0.0372803,
4856,0.043335,0.0376282,
4858,0.057373,0.0380127,
4860,-0.010376,0.0379211,
4862,-0.045166,0.0381897,
4864,-0.0195313,0.0383545,
4866,0.00366211,0.038269,
4868,-0.0683594,0.0378357,
4870,-0.0238037,0.0377686,
4872,-0.0170898,0.0373779,
4874,-0.0183105,0.036908,
4876,-0.134277,0.0372681,
4878,0.045166,0.0376099,
4880,0.0592041,0.0381958,
4882,0.0140381,0.0380676,
4884,-0.090332,0.0388672,
4886,0.0323486,0.0390564,
4888,0.0689697,0.0391968,
4890,-0.0579834,0.0389465,
4892,-0.0518799,0.0379089,
4894,0.0500488,0.037854,
4896,0.00244141,0.0375671,
4898,-0.0769043,0.0378235,
4900,0.022583,0.0380432,
4902,-0.010376,0.0376038,
4904,0.00854492,0.0373718,
4906,-0.0115967,0.0369019,
4908,0.00427246,0.0367615,
4910,0.0158691,0.036554,
4912,-0.0799561,0.0372742,
4914,0.0744629,0.0370117,
4916,0.00549316,0.0368225,
4918,-0.0476074,0.0372681,
4920,0.0384521,0.0374023,
4922,0.00793457,0.0373291,
4924,-0.00854492,0.0370667,
4926,0.0341797,0.0365173,
4928,-0.0134277,0.0364746,
4930,0.0170898,0.0366089,
4932,0.0628662,0.0369446,
4934,0.00427246,0.0365234,
4936,0.0933838,0.037439,
4938,-0.102539,0.0374573,
4940,-0.0134277,0.0366333,
4942,-0.0012207,0.0362488,
4944,-0.0317383,0.0363403,
4946,-0.0500488,0.0361816,
4948,-0.0671387,0.0363586,
4950,-0.0439453,0.0364563,
4952,-0.0408936,0.0360596,
4954,0.00305176,0.0355164,
4956,0.0396729,0.035675,
4958,-0.0256348,0.0354126,
4960,0.00915527,0.0349792,
4962,0.0390625,0.0348938,
4964,-0.00183105,0.0349121,
4966,0.0549316,0.0352356,
4968,-0.0280762,0.0353638,
4970,0.0323486,0.0353455,
4972,0.0585938,0.0353455,
4974,0.0183105,0.0353149,
4976,0.0531006,0.0355408,
4978,-0.0299072,0.035553,
4980,0.0799561,0.0362671,
4982,0.0341797,0.0361633,
4984,-0.0262451,0.036322,
4986,-0.0262451,0.0361084,
4988,0.00854492,0.036084,
4990,0.00793457,0.0356873,
4992,-0.0726318,0.0359375,
4994,0.0579834,0.0362793,
4996,-0.0671387,0.0365417,
4998,-0.00427246,0.0359619,
5000,0.00732422,0.0353027,
5002,0.043335,0.0354736,
5004,0.0653076,0.0359619,
5006,0.0628662,0.0365173,
5008,0.0140381,0.0365112,
5010,-0.0823975,0.0368225,
5012,-0.0219727,0.0367187,
5014,0.022583,0.0368408,
5016,0.012207,0.0366272,
5018,-0.0878906,0.0373474,
5020,-0.0726318,0.0378723,
5022,-0.0476074,0.0382263,
5024,-0.00732422,0.0376221,
5026,0.0427246,0.0375977,
5028,0.00305176,0.0370972,
5030,0.0305176,0.036853,
5032,0.00671387,0.0368469,
5034,0.0421143,0.0372192,
5036,0.00671387,0.0372742,
5038,0.00488281,0.0369751,
5040,-0.0445557,0.0374023,
5042,-0.0378418,0.0376709,
5044,-0.0115967,0.0376831,
5046,-0.00244141,0.0370789,
5048,-0.0372314,0.0368652,
5050,0.0183105,0.0369324,
5052,0.0708008,0.036499,
5054,-0.0683594,0.0365662,
5056,0.0286865,0.0364197,
5058,0.022583,0.0360718,
5060,0,0.035968,
5062,0.0305176,0.0358215,
5064,-0.0244141,0.0358704,
5066,0.0305176,0.0361389,
5068,0.0726318,0.0361816,
5070,-0.107422,0.0370178,
5072,-0.0140381,0.0369873,
5074,0.012207,0.0369263,
5076,0.0384521,0.035968,
5078,-0.0238037,0.0357544,
5080,0.00366211,0.035199,
5082,-0.0366211,0.0354248,
5084,-0.0421143,0.0349426,
5086,0.00427246,0.0346619,
5088,0.0170898,0.0341431,
5090,0.043335,0.0339966,
5092,0.0170898,0.0336487,
5094,-0.0238037,0.0333862,
5096,0.000610352,0.0333679,
5098,-0.098877,0.0335876,
5100,0.0250244,0.0336121,
5102,0.010376,0.0336121,
5104,-0.0927734,0.0344543,
5106,-0.0579834,0.0349182,
5108,-0.032959,0.0352051,
5110,-0.0384521,0.0354309,
5112,-0.0244141,0.0348755,
5114,0.0390625,0.0345215,
5116,0.0280762,0.0347473,
5118,-0.0396729,0.034668,
5120,0.00488281,0.0343323,
5122,0.067749,0.0349304,
5124,-0.057373,0.0354187,
5126,0.0201416,0.0352783,
5128,0.0317383,0.0354614,
5130,-0.00366211,0.0353271,
5132,-0.0445557,0.035144,
5134,0,0.0351013,
5136,0.0408936,0.0345764,
5138,-0.0109863,0.0336609,
5140,0.0762939,0.0342896,
5142,0.00549316,0.0343323,
5144,0.00915527,0.0341064,
5146,0.0170898,0.0337769,
5148,-0.0219727,0.0333252,
5150,0.0134277,0.03302,
5152,0.0128174,0.0327393,
5154,-0.0408936,0.0331177,
5156,0.0286865,0.0330078,
5158,-0.0177002,0.0329285,
5160,-0.0286865,0.0331238,
5162,-0.0213623,0.0329468,
5164,0.0402832,0.0333313,
5166,-0.0604248,0.0333862,
5168,0.0396729,0.0335022,
5170,-0.0177002,0.0333557,
5172,0.0311279,0.0330811,
5174,-0.045166,0.0333496,
5176,-0.0280762,0.0330994,
5178,-0.0335693,0.033136,
5180,-0.00427246,0.0323792,
5182,0.022583,0.0322632,
5184,0.00244141,0.0320251,
5186,0.0482178,0.0322449,
5188,-0.0128174,0.0322876,
5190,-0.0933838,0.0331421,
5192,0.0341797,0.0327576,
5194,-0.0366211,0.0325439,
5196,-0.0140381,0.0320129,
5198,0.00244141,0.0319946,
5200,-0.0531006,0.0324524,
5202,-0.0231934,0.032251,
5204,0.0158691,0.0317566,
5206,0.0476074,0.031604,
5208,-0.0268555,0.0317322,
5210,0.0256348,0.0311646,
5212,0.0109863,0.0310547,
5214,-0.0115967,0.0309448,
5216,-0.00305176,0.0308533,
5218,-0.0292969,0.0302673,
5220,-0.0292969,0.029834,
5222,-0.0012207,0.0293701,
5224,0.045166,0.0297485,
5226,0.0231934,0.0295532,
5228,-0.0268555,0.0297913,
5230,0.0616455,0.0301025,
5232,-0.0280762,0.0303162,
5234,0.032959,0.0302246,
5236,0.0396729,0.0305542,
5238,-0.032959,0.030835,
5240,-0.0744629,0.031134,
5242,0.0189209,0.0309448,
5244,0.0152588,0.0309814,
5246,-0.0317383,0.0312744,
5248,0.0286865,0.031189,
5250,0.0402832,0.0314087,
5252,-0.0213623,0.0309143,
5254,-0.0262451,0.0304932,
5256,0.0341797,0.0305481,
5258,-0.0482178,0.0308044,
5260,-0.0250244,0.0310547,
5262,0.022583,0.0309753,
5264,-0.0476074,0.0312073,
5266,-0.0115967,0.0310181,
5268,0.00549316,0.0303467,
5270,0.00671387,0.0293396,
5272,0.088501,0.0300842,
5274,-0.0128174,0.0300903,
5276,-0.0671387,0.0303772,
5278,0.0390625,0.0305298,
5280,0.0012207,0.0305054,
5282,-0.022583,0.030365,
5284,-0.0756836,0.0307007,
5286,-0.0726318,0.0313843,
5288,-0.00366211,0.03125,
5290,0.022583,0.0310425,
5292,-0.0408936,0.0312805,
5294,0.0305176,0.0313477,
5296,0.0146484,0.031488,
5298,0.0140381,0.0306396,
5300,-0.00732422,0.0304626,
5302,0.00854492,0.0304443,
5304,0.0238037,0.0297546,
5306,-0.0354004,0.0295288,
5308,0.00549316,0.0292542,
5310,-0.00854492,0.0289551,
5312,0.0115967,0.0288269,
5314,0.0476074,0.0289124,
5316,-0.00671387,0.0286987,
5318,-0.00854492,0.0283875,
5320,-0.00488281,0.0283875,
5322,0.0152588,0.0278625,
5324,-0.0109863,0.0273987,
5326,-0.0378418,0.0275757,
5328,0.0402832,0.0276611,
5330,-0.0146484,0.027771,
5332,-0.0653076,0.0279785,
5334,-0.0164795,0.0281433,
5336,0.00488281,0.0277832,
5338,0.0140381,0.0278137,
5340,-0.0164795,0.0272156,
5342,-0.0177002,0.0273376,
5344,0.0378418,0.0276245,
5346,0.0238037,0.0276917,
5348,-0.022583,0.0276978,
5350,0.0292969,0.0278564,
5352,-0.0366211,0.0280945,
5354,0.0378418,0.028064,
5356,-0.00244141,0.0278015,
5358,-0.0323486,0.027948,
5360,-0.0262451,0.0279236,
5362,-0.0213623,0.0279236,
5364,-0.0402832,0.0279236,
5366,0.0219727,0.0275391,
5368,-0.00427246,0.0271851,
5370,-0.0109863,0.0271179,
5372,-0.00366211,0.0268433,
5374,-0.00427246,0.0264343,
5376,0.00427246,0.0261963,
5378,-0.00915527,0.0259521,
5380,-0.0274658,0.0261841,
5382,0.0524902,0.0264832,
5384,-0.0128174,0.0265869,
5386,-0.00488281,0.0261536,
5388,0.0384521,0.0264099,
5390,0.00915527,0.0255676,
5392,0.00305176,0.0252563,
5394,-0.0366211,0.0252563,
5396,0.0134277,0.0252502,
5398,0.0457764,0.0256836,
5400,0.0280762,0.0254333,
5402,0.0219727,0.0254211,
5404,0.00366211,0.0252991,
5406,0.116577,0.0259888,
5408,0.0732422,0.0264526,
5410,0.00610352,0.0262573,
5412,0.0500488,0.0266479,
5414,-0.0390625,0.0269226,
5416,0.03479,0.02724,
5418,-0.100708,0.0279541,
5420,-0.0878906,0.02854,
5422,-0.114136,0.0296692,
5424,-0.109863,0.0303162,
5426,0.0421143,0.0305054,
5428,-0.0549316,0.0307861,
5430,-0.0280762,0.0304504,
5432,0.0323486,0.0304932,
5434,0.0109863,0.0302734,
5436,0.136108,0.0312378,
5438,0.065918,0.0315674,
5440,-0.122681,0.0320496,
5442,0.0830078,0.0326904,
5444,-0.0860596,0.0333984,
5446,-0.0439453,0.0335205,
5448,-0.0683594,0.0339172,
5450,-0.0598145,0.0341125,
5452,-0.0628662,0.0345276,
5454,0.0891113,0.0351563,
5456,-0.0152588,0.034967,
5458,0.117188,0.0356567,
5460,-0.12146,0.0366211,
5462,0.114746,0.0375427,
5464,0.150146,0.0385681,
5466,-0.0695801,0.0391479,
5468,-0.0683594,0.0397766,
5470,0.110474,0.0408142,
5472,0.0231934,0.0401611,
5474,-0.0805664,0.0408386,
5476,0.0292969,0.0404602,
5478,0.0012207,0.0400818,
5480,0.0634766,0.0407043,
5482,0.0378418,0.0408569,
5484,0.0109863,0.04021,
5486,0.00854492,0.0395691,
5488,0.155029,0.0410828,
5490,0.223389,0.0430908,
5492,0.078125,0.0434631,
5494,-0.130005,0.044458,
5496,0.0701904,0.0450134,
5498,0.176392,0.046637,
5500,0.0897217,0.0474609,
5502,-0.0897217,0.0482727,
5504,-0.238037,0.050415,
5506,-0.12146,0.0512756,
5508,-0.0335693,0.0515564,
5510,0.0616455,0.0520874,
5512,-0.0390625,0.0523621,
5514,-0.245972,0.0543457,
5516,-0.0769043,0.0550476,
5518,0.0213623,0.0551758,
5520,-0.0152588,0.0552795,
5522,-0.0378418,0.0555054,
5524,-0.0634766,0.0560303,
5526,-0.10498,0.0567017,
5528,0.0183105,0.0564819,
5530,-0.0854492,0.0571899,
5532,-0.0628662,0.0571655,
5534,-0.0299072,0.0572998,
5536,-0.0280762,0.0575317,
5538,-0.0177002,0.0575684,
5540,0.0012207,0.0574158,
5542,-0.067749,0.0579163,
5544,0.0134277,0.0576721,
5546,-0.0250244,0.0576843,
5548,0.0292969,0.0577515,
5550,0.0610352,0.0580688,
5552,-0.0286865,0.0579895,
5554,-0.0683594,0.0582947,
5556,0.0238037,0.0585083,
5558,0.0482178,0.058667,
5560,0.0543213,0.0589478,
5562,-0.0823975,0.0595581,
5564,-0.0201416,0.0593567,
5566,-0.00854492,0.0592224,
5568,0.0170898,0.0593506,
5570,-0.0372314,0.059613,
5572,-0.0653076,0.0602295,
5574,-0.022583,0.0604126,
5576,0.000610352,0.060376,
5578,-0.0286865,0.0605713,
5580,-0.0201416,0.060498,
5582,0.012207,0.0600952,
5584,0.0341797,0.0603088,
5586,0.0805664,0.0610657,
5588,0.0311279,0.0609924,
5590,-0.00305176,0.0609314,
5592,0.0311279,0.0612122,
5594,0.0012207,0.0608582,
5596,0.0891113,0.061615,
5598,-0.0231934,0.0613892,
5600,-0.0384521,0.0614929,
5602,0.0500488,0.0617737,
5604,0.0683594,0.0624207,
5606,-0.133057,0.0625854,
5608,0.0500488,0.0623535,
5610,0.065918,0.0629517,
5612,-0.067749,0.0631287,
5614,0.00671387,0.0628052,
5616,-0.0286865,0.0627441,
5618,-0.0775146,0.0625122,
5620,-0.055542,0.0621887,
5622,-0.0628662,0.061676,
5624,0.0134277,0.0607117,
5626,-0.0506592,0.0607971,
5628,-0.0158691,0.0604065,
5630,-0.000610352,0.0601318,
5632,-0.022583,0.0600342,
5634,0.0415039,0.0603394,
5636,-0.0787354,0.0597656,
5638,0.0756836,0.0598633,
5640,0.0366211,0.0590027,
5642,-0.045166,0.0586243,
5644,-0.0793457,0.0585571,
5646,0.0109863,0.0582275,
5648,0.0183105,0.0577271,
5650,-0.00976563,0.0572266,
5652,-0.0439453,0.0570374,
5654,-0.110474,0.057251,
5656,0.0708008,0.0578064,
5658,0.0427246,0.0570618,
5660,-0.103149,0.0568787,
5662,-0.0109863,0.0558411,
5664,-0.00305176,0.0543701,
5666,-0.0012207,0.0536865,
5668,-0.00793457,0.0530823,
5670,0.0146484,0.052124,
5672,0.00732422,0.0519653,
5674,0.0268555,0.0514282,
5676,0.022583,0.0513611,
5678,-0.0268555,0.0516174,
5680,-0.0140381,0.051123,
5682,0.0134277,0.0508789,
5684,0.0372314,0.0511414,
5686,-0.0183105,0.051239,
5688,-0.0109863,0.0497986,
5690,-0.0292969,0.0478577,
5692,0.000610352,0.0470825,
5694,0.0750732,0.0465332,
5696,0.0115967,0.0459473,
5698,-0.0396729,0.0445801,
5700,-0.0183105,0.043866,
5702,0.0750732,0.0437195,
5704,0.00488281,0.0413879,
5706,-0.0653076,0.0408264,
5708,0.000610352,0.0404968,
5710,-0.0494385,0.0403748,
5712,0.0372314,0.0403564,
5714,0.00183105,0.037915,
5716,-0.032959,0.0374756,
5718,-0.127563,0.0385376,
5720,-0.00366211,0.0384216,
5722,0.0189209,0.0382324,
5724,-0.0390625,0.0379883,
5726,-0.0231934,0.0371704,
5728,-0.0360107,0.0373474,
5730,-0.0622559,0.0371155,
5732,-0.0177002,0.0366638,
5734,-0.0213623,0.0365784,
5736,0.101929,0.0373169,
5738,-0.0317383,0.0374573,
5740,-0.0750732,0.0381958,
5742,0.0695801,0.0382141,
5744,0.0256348,0.0383362,
5746,-0.057373,0.0386597,
5748,0.0311279,0.038678,
5750,-0.0177002,0.0382446,
5752,-0.0140381,0.0380981,
5754,-0.022583,0.0376404,
5756,-0.00366211,0.037439,
5758,-0.0256348,0.0372131,
5760,-0.0213623,0.0368835,
5762,-0.00671387,0.0361267,
5764,-0.0714111,0.0366394,
5766,0.0427246,0.0369812,
5768,-0.0610352,0.0374207,
5770,0.00366211,0.037085,
5772,-0.0140381,0.0365723,
5774,-0.022583,0.0365723,
5776,0.0274658,0.0368408,
5778,0.0140381,0.0366943,
5780,0.0299072,0.036792,
5782,0.00793457,0.0367493,
5784,-0.0115967,0.0365234,
5786,-0.0341797,0.0360596,
5788,-0.0170898,0.0359192,
5790,0.0250244,0.0361389,
5792,-0.0262451,0.0360901,
5794,-0.010376,0.0361816,
5796,0.0299072,0.0355896,
5798,-0.0482178,0.0358398,
5800,0.0738525,0.0361938,
5802,0.0646973,0.0363403,
5804,-0.043335,0.0360901,
5806,-0.0317383,0.0350769,
5808,-0.0201416,0.0347778,
5810,0.00915527,0.0342102,
5812,-0.0402832,0.0339355,
5814,-0.0610352,0.0344788,
5816,0.0012207,0.0342041,
5818,-0.0164795,0.0335937,
5820,-0.012207,0.0331604,
5822,0.0421143,0.0329529,
5824,-0.0543213,0.0333618,
5826,0.109863,0.0339539,
5828,-0.00793457,0.0338745,
5830,-0.0512695,0.0343811,
5832,-0.00793457,0.0342346,
5834,-0.0360107,0.0341797,
5836,0.045166,0.033844,
5838,-0.0341797,0.033429,
5840,-0.0305176,0.0333679,
5842,0.0292969,0.0332092,
5844,-0.0457764,0.0328735,
5846,-0.020752,0.0329712,
5848,-0.0213623,0.0330017,
5850,-0.0524902,0.033429,
5852,-0.00244141,0.0330139,
5854,-0.0286865,0.032196,
5856,-0.0494385,0.0319824,
5858,-0.0238037,0.0317932,
5860,0.00366211,0.0307983,
5862,0.0299072,0.0309875,
5864,0.0140381,0.0310974,
5866,0.0146484,0.0312317,
5868,-0.0500488,0.0316528,
5870,0.0549316,0.0320557,
5872,0.0244141,0.0322266,
5874,-0.0506592,0.0324646,
5876,0.0592041,0.0328308,
5878,0.000610352,0.0325684,
5880,-0.0366211,0.0327942,
5882,-0.0280762,0.0329407,
5884,0.00671387,0.0326355,
5886,-0.00976563,0.03255,
5888,-0.00793457,0.0325195,
5890,-0.0164795,0.0323914,
5892,0.00427246,0.032428,
5894,-0.0378418,0.0320557,
5896,0.0152588,0.0320923,
5898,0.0244141,0.0319397,
5900,-0.00915527,0.0318481,
5902,0.0238037,0.0313354,
5904,0.0128174,0.0314148,
5906,0.0744629,0.0315063,
5908,0.0457764,0.031958,
5910,0.0256348,0.03172,
5912,-0.0164795,0.0315125,
5914,-0.0164795,0.0316589,
5916,0.0445557,0.0317749,
5918,0.0134277,0.0306335,
5920,-0.0665283,0.0312622,
5922,-0.0616455,0.0316895,
5924,-0.0482178,0.031781,
5926,-0.0280762,0.0318298,
5928,-0.0195313,0.031665,
5930,-0.067749,0.03172,
5932,0.0177002,0.03172,
5934,0.00671387,0.0315735,
5936,0.022583,0.03078,
5938,-0.0286865,0.0307495,
5940,0.0152588,0.0301514,
5942,0.0378418,0.029834,
5944,-0.00610352,0.0296387,
5946,0.00305176,0.0290955,
5948,-0.0628662,0.0294128,
5950,-0.0152588,0.0293884,
5952,-0.0439453,0.0296875,
5954,0.00244141,0.0294861,
5956,0.0152588,0.0296021,
5958,0.0238037,0.0295837,
5960,0.0915527,0.0302856,
5962,0.0799561,0.0310181,
5964,0.00549316,0.0303589,
5966,0.0421143,0.0303528,
5968,0.0311279,0.0300537,
5970,0.0720215,0.0307373,
5972,0.0506592,0.0311035,
5974,-0.0109863,0.0309875,
5976,-0.10437,0.0317566,
5978,-0.0671387,0.0322876,
5980,-0.0250244,0.0322388,
5982,-0.0445557,0.032605,
5984,-0.0274658,0.0327637,
5986,-0.0177002,0.0325989,
5988,-0.0598145,0.0330261,
5990,-0.123901,0.0340149,
5992,-0.0366211,0.0341187,
5994,0.0396729,0.0344116,
5996,-0.022583,0.0343384,
5998,-0.0421143,0.0342773,
6000,-0.0836182,0.034375,
6002,-0.0427246,0.0341553,
6004,-0.0231934,0.0339539,
6006,-0.00183105,0.0336548,
6008,-0.0891113,0.0343445,
6010,-0.0335693,0.0345886,
6012,-0.043335,0.0346191,
6014,-0.0286865,0.0342957,
6016,-0.0152588,0.034436,
6018,-0.0244141,0.0345154,
6020,-0.0286865,0.0346802,
6022,-0.0616455,0.0348755,
6024,-0.0128174,0.0344604,
6026,0.0158691,0.0335205,
6028,-0.0189209,0.0336304,
6030,0.0109863,0.0332275,
6032,0.0305176,0.0334534,
6034,-0.0341797,0.0334351,
6036,0.0286865,0.0332703,
6038,0.00244141,0.0329529,
6040,-0.0500488,0.0331482,
6042,0.00549316,0.0329102,
6044,0.00671387,0.0325195,
6046,-0.0305176,0.0326172,
6048,-0.0500488,0.0329041,
6050,0.00305176,0.0324097,
6052,-0.0146484,0.0325317,
6054,-0.0543213,0.0327881,
6056,-0.0170898,0.0324646,
6058,-0.0292969,0.0325195,
6060,-0.057373,0.0330566,
6062,-0.0317383,0.033075,
6064,-0.03479,0.0332825,
6066,-0.0396729,0.0335327,
6068,-0.0140381,0.0331726,
6070,-0.0250244,0.0328735,
6072,0.00610352,0.0326904,
6074,-0.0256348,0.0324402,
6076,-0.00610352,0.0319092,
6078,0.0152588,0.0320557,
6080,0.0183105,0.0318726,
6082,0.0244141,0.0318359,
6084,0.0311279,0.0320801,
6086,-0.00976563,0.0320801,
6088,-0.00244141,0.0320251,
6090,0.0158691,0.032019,
6092,-0.0238037,0.0322144,
6094,0.00671387,0.0319031,
6096,-0.0531006,0.0322815,
6098,-0.0231934,0.0322693,
6100,-0.0158691,0.0323364,
6102,-0.0299072,0.0323975,
6104,-0.0512695,0.032782,
6106,-0.0335693,0.032373,
6108,-0.00244141,0.0319397,
6110,0.0268555,0.0319519,
6112,-0.0402832,0.0321899,
6114,-0.0695801,0.0327209,
6116,-0.0360107,0.0326355,
6118,-0.00976563,0.0325989,
6120,-0.010376,0.0320374,
6122,-0.0292969,0.0317139,
6124,-0.0280762,0.0315125,
6126,-0.00732422,0.0313049,
6128,-0.00366211,0.0311462,
6130,-0.0250244,0.030719,
6132,-0.0140381,0.0306824,
6134,0.00671387,0.0306824,
6136,0.012207,0.0305786,
6138,-0.0146484,0.0304382,
6140,-0.0292969,0.0305786,
6142,-0.0219727,0.0304199,
6144,-0.0158691,0.0305176,
6146,-0.022583,0.0307129,
6148,-0.00793457,0.0301636,
6150,-0.000610352,0.0300171,
6152,0.00244141,0.0296021,
6154,-0.0244141,0.0298218,
6156,-0.0177002,0.0298462,
6158,0.00366211,0.0296448,
6160,-0.012207,0.0288513,
6162,0.00915527,0.0281433,
6164,-0.0128174,0.0282166,
6166,-0.0158691,0.0279541,
6168,-0.00732422,0.0277161,
6170,-0.0183105,0.027179,
6172,0.00183105,0.0266907,
6174,-0.0280762,0.0268616,
6176,-0.00610352,0.0258789,
6178,0.0012207,0.0252197,
6180,-0.020752,0.025177,
6182,-0.0231934,0.0249634,
6184,0.00366211,0.0247253,
6186,0.00488281,0.0245972,
6188,-0.00488281,0.0240479,
6190,-0.0115967,0.0229248,
6192,0.0262451,0.022821,
6194,0.0360107,0.0227844,
6196,0.0146484,0.0227051,
6198,0.00549316,0.0223389,
6200,0.00244141,0.0215271,
6202,-0.00488281,0.0211487,
6204,0.00549316,0.0209717,
6206,0.00183105,0.0209717,
6208,-0.00183105,0.0200989,
6210,-0.0286865,0.02005,
6212,-0.0195313,0.019812,
6214,-0.00610352,0.0195862,
6216,0.0152588,0.0195862,
6218,0.0140381,0.0194824,
6220,-0.00976563,0.0192932,
6222,-0.00549316,0.0187317,
6224,0.00488281,0.0186523,
6226,-0.00427246,0.0185364,
6228,0.0109863,0.018457,
6230,-0.0201416,0.0185486,
6232,-0.00732422,0.0183167,
6234,0.000610352,0.017981,
6236,0.00793457,0.0177734,
6238,0.010376,0.0178528,
6240,0.00427246,0.017395,
6242,-0.00549316,0.017395,
6244,0.0134277,0.0174622,
6246,0.00244141,0.0171814,
6248,-0.000610352,0.016687,
6250,-0.00854492,0.0167419,
6252,0.0323486,0.0169189,
6254,-0.00610352,0.0164368,
6256,0.00427246,0.0163086,
6258,-0.00549316,0.0160706,
6260,0.0317383,0.0158142,
6262,0.0170898,0.0156677,
6264,-0.0109863,0.0154297,
6266,0.00793457,0.0151123,
6268,-0.00671387,0.0150391,
6270,-0.010376,0.0148926,
6272,0.00305176,0.0148621,
6274,0.00488281,0.0146545,
6276,0.012207,0.0147156,
6278,0.0219727,0.0147827,
6280,-0.0238037,0.0148376,
6282,-0.020752,0.014801,
6284,-0.00915527,0.0145813,
6286,0.00854492,0.0145691,
6288,-0.0445557,0.0149902,
6290,-0.0372314,0.0152039,
6292,-0.000610352,0.0149719,
6294,-0.0134277,0.0150391,
6296,-0.0323486,0.0148315,
6298,-0.00305176,0.0146301,
6300,0.0140381,0.0146118,
6302,0.0134277,0.014447,
6304,0.00488281,0.0139832,
6306,-0.0115967,0.0137634,
6308,0.00488281,0.0137878,
6310,-0.00732422,0.0135925,
6312,0.00549316,0.0132446,
6314,-0.00976563,0.0126465,
6316,-0.0134277,0.0124207,
6318,-0.012207,0.0124451,
6320,0.00305176,0.0123718,
6322,0.0170898,0.0122498,
6324,-0.0158691,0.0121277,
6326,0.000610352,0.0120605,
6328,-0.00183105,0.0120422,
6330,0.0012207,0.0118042,
6332,0.00488281,0.0117126,
6334,-0.00305176,0.011676,
6336,0.0268555,0.0118225,
6338,0.0152588,0.0118286,
6340,-0.0231934,0.0117676,
6342,0.00671387,0.011615,
6344,0.0140381,0.0115967,
6346,-0.020752,0.0115784,
6348,0.00854492,0.0115845,
6350,0.00549316,0.0116333,
6352,-0.00976563,0.0117065,
6354,-0.00366211,0.011499,
6356,0.00549316,0.011377,
6358,0.0262451,0.0116028,
6360,0.0109863,0.0115906,
6362,0.0012207,0.0115112,
6364,-0.0158691,0.0115417,
6366,0.00854492,0.0114685,
6368,0.012207,0.0115173,
6370,0.0140381,0.0114746,
6372,-0.0341797,0.0117981,
6374,-0.0177002,0.0116943,
6376,-0.000610352,0.0116394,
6378,-0.00244141,0.0116516,
6380,0.00854492,0.0115295,
6382,-0.0231934,0.0115295,
6384,-0.00488281,0.0115417,
6386,-0.000610352,0.011499,
6388,-0.0262451,0.0117126,
6390,-0.0201416,0.0117981,
6392,0,0.0115356,
6394,-0.00671387,0.0112427,
6396,-0.0164795,0.011261,
6398,-0.00732422,0.0112793,
6400,-0.0250244,0.0115051,
6402,0.00488281,0.0115051,
6404,-0.00305176,0.0114807,
6406,-0.00549316,0.0115173,
6408,-0.0012207,0.0115112,
6410,-0.00610352,0.0112854,
6412,0.012207,0.0112122,
6414,0.00305176,0.0111816,
6416,-0.00976563,0.0111267,
6418,0.0280762,0.0112671,
6420,0.00305176,0.0112,
6422,0.0299072,0.0114441,
6424,0.00244141,0.0114197,
6426,0.0012207,0.0113892,
6428,-0.00305176,0.0113098,
6430,-0.00488281,0.0111572,
6432,-0.0115967,0.0112,
6434,-0.020752,0.0114014,
6436,-0.00427246,0.0113647,
6438,-0.0402832,0.0116638,
6440,-0.012207,0.0117432,
6442,-0.0146484,0.0118347,
6444,0.0012207,0.0117126,
6446,-0.0164795,0.011853,
6448,-0.0158691,0.0120056,
6450,-0.00976563,0.0120178,
6452,-0.012207,0.0118164,
6454,-0.0115967,0.0118713,
6456,0.00183105,0.0118469,
6458,-0.012207,0.0119141,
6460,-0.0115967,0.0117126,
6462,-0.000610352,0.0115479,
6464,-0.00244141,0.0114624,
6466,0.000610352,0.0113892,
6468,-0.0012207,0.0113342,
6470,0.00854492,0.0113159,
6472,0.00732422,0.0113586,
6474,-0.0164795,0.0114746,
6476,0.0311279,0.0116638,
6478,0.00976563,0.0115417,
6480,0.00671387,0.0113708,
6482,0.0146484,0.0113098,
6484,-0.00854492,0.0113037,
6486,-0.00244141,0.0112427,
6488,0.0146484,0.0109436,
6490,-0.00915527,0.0106628,
6492,-0.0146484,0.0108032,
6494,-0.022583,0.0108948,
6496,0.00610352,0.0106323,
6498,0.00671387,0.0106689,
6500,-0.00732422,0.0106018,
6502,0.0250244,0.0107178,
6504,0.00854492,0.0107544,
6506,0.00244141,0.0106628,
6508,-0.00610352,0.010675,
6510,0.000610352,0.0106079,
6512,0.00305176,0.0105835,
6514,0.00915527,0.0105774,
6516,-0.0201416,0.0106445,
6518,-0.0177002,0.0106995,
6520,-0.0164795,0.0108337,
6522,-0.00793457,0.0107422,
6524,0.00976563,0.0106812,
6526,0.00732422,0.0107483,
6528,-0.0177002,0.010907,
6530,-0.00366211,0.0109314,
6532,-0.00671387,0.0109497,
6534,-0.0109863,0.0110291,
6536,-0.0012207,0.0107727,
6538,-0.00549316,0.010675,
6540,-0.010376,0.0105469,
6542,-0.0152588,0.0106323,
6544,-0.00732422,0.0105652,
6546,-0.00610352,0.0104187,
6548,0.00549316,0.0103882,
6550,-0.00488281,0.0103821,
6552,-0.0012207,0.0102966,
6554,0,0.01026,
6556,0.0115967,0.010321,
6558,0.0158691,0.0102173,
6560,-0.0177002,0.0102844,
6562,0.00610352,0.0103333,
6564,0.00732422,0.0102478,
6566,0.00427246,0.0102051,
6568,0.00488281,0.0101318,
6570,-0.0268555,0.01026,
6572,-0.00183105,0.00993652,
6574,-0.00915527,0.00985107,
6576,-0.0115967,0.00996094,
6578,0.00183105,0.00995483,
6580,-0.0115967,0.00998535,
6582,-0.0158691,0.00991211,
6584,-0.00183105,0.00988159,
6586,-0.00915527,0.00996704,
6588,0.00732422,0.00977783,
6590,0.0012207,0.00958862,
6592,-0.00854492,0.00967407,
6594,0.00732422,0.00968018,
6596,0.0109863,0.00962524,
6598,-0.00244141,0.00957642,
6600,0.00244141,0.00935059,
6602,0.020752,0.00950928,
6604,-0.0109863,0.00958862,
6606,0.0115967,0.00964966,
6608,0.0201416,0.00983887,
6610,-0.0115967,0.0098938,
6612,-0.012207,0.0098938,
6614,-0.0158691,0.010022,
6616,-0.0164795,0.0100891,
6618,0.0183105,0.00999146,
6620,-0.0109863,0.0100708,
6622,-0.00610352,0.00983276,
6624,-0.0134277,0.00994263,
6626,-0.010376,0.0100342,
6628,0.00610352,0.0100647,
6630,0.00366211,0.0100525,
6632,0.00183105,0.00995483,
6634,0.00671387,0.00981445,
6636,-0.0213623,0.00998535,
6638,-0.00793457,0.00966187,
6640,-0.012207,0.00966187,
6642,-0.0280762,0.00979614,
6644,0.00732422,0.00985718,
6646,-0.000610352,0.00969849,
6648,-0.010376,0.00964355,
6650,-0.0152588,0.00969849,
6652,-0.0109863,0.00968628,
6654,0,0.00957031,
6656,0.020752,0.00975952,
6658,0.00427246,0.00968018,
6660,-0.0158691,0.0097229,
6662,-0.000610352,0.0097229,
6664,0.0164795,0.00986328,
6666,0.00793457,0.00993652,
6668,-0.00183105,0.00994263,
6670,-0.0177002,0.0100342,
6672,0.0164795,0.0101257,
6674,-0.0012207,0.00997314,
6676,-0.0109863,0.00977173,
6678,0.0152588,0.00982666,
6680,-0.0170898,0.00993042,
6682,0.00366211,0.00982056,
6684,0.00305176,0.00976563,
6686,-0.00244141,0.00976563,
6688,0.0128174,0.00974731,
6690,-0.0195313,0.00985107,
6692,0.00915527,0.00979614,
6694,0.010376,0.00967407,
6696,0.0183105,0.00979614,
6698,-0.0292969,0.010022,
6700,-0.00549316,0.0100037,
6702,-0.00915527,0.00984497,
6704,-0.00976563,0.00985718,
6706,-0.00854492,0.00991821,
6708,-0.020752,0.0100647,
6710,-0.0177002,0.0102356,
6712,-0.00671387,0.0102722,
6714,0.00183105,0.010199,
6716,0,0.00999756,
6718,0.0115967,0.00993652,
6720,-0.00610352,0.00983276,
6722,0.00488281,0.00980225,
6724,0.00732422,0.00977783,
6726,0.0189209,0.0098938,
6728,-0.0189209,0.00990601,
6730,-0.0115967,0.00998535,
6732,0.0109863,0.0100281,
6734,0.00549316,0.00997314,
6736,-0.00488281,0.0100098,
6738,-0.0109863,0.0100647,
6740,0,0.00996094,
6742,0.00671387,0.00987549,
6744,0.0195313,0.00999756,
6746,-0.00427246,0.00997925,
6748,-0.0134277,0.0100586,
6750,0.00305176,0.0100403,
6752,-0.00183105,0.0100464,
6754,0.00549316,0.0101013,
6756,-0.00915527,0.0100769,
6758,0.00244141,0.00994263,
6760,0.0170898,0.00993652,
6762,0.0299072,0.0101746,
6764,0.0140381,0.0102417,
6766,0.00793457,0.0102783,
6768,-0.0183105,0.0104126,
6770,0.00427246,0.0101868,
6772,0,0.0101685,
6774,-0.0183105,0.01026,
6776,-0.0427246,0.0105713,
6778,0.00366211,0.0105896,
6780,-0.00793457,0.010553,
6782,-0.0268555,0.0106628,
6784,-0.00427246,0.0106873,
6786,0.00427246,0.0106384,
6788,0.00915527,0.0106567,
6790,0.0164795,0.0108093,
6792,-0.00793457,0.0108032,
6794,-0.00610352,0.010791,
6796,-0.00610352,0.0107422,
6798,0.0115967,0.0108337,
6800,0.00610352,0.0108704,
6802,0.0012207,0.010675,
6804,-0.00366211,0.0106018,
6806,0.0012207,0.010498,
6808,-0.00671387,0.0103638,
6810,-0.00732422,0.010321,
6812,0.0128174,0.0103271,
6814,-0.0128174,0.0102966,
6816,0.00732422,0.0102051,
6818,0.00183105,0.0100403,
6820,0.00183105,0.00994873,
6822,0.0140381,0.0100281,
6824,-0.0201416,0.0100952,
6826,0.000610352,0.00999756,
6828,0.0146484,0.010083,
6830,-0.0268555,0.0103149,
6832,-0.020752,0.0105042,
6834,-0.0170898,0.0106079,
6836,-0.00793457,0.0104736,
6838,-0.0128174,0.0105225,
6840,-0.0170898,0.0105713,
6842,-0.0115967,0.0104065,
6844,0.00305176,0.0103638,
6846,-0.0140381,0.010498,
6848,0.00305176,0.0104248,
6850,0.00305176,0.0103027,
6852,-0.00732422,0.0102661,
6854,0.0012207,0.0102783,
6856,0.00854492,0.0101563,
6858,-0.0152588,0.0102661,
6860,-0.00488281,0.0101563,
6862,0.00732422,0.0102234,
6864,-0.0152588,0.0102112,
6866,0.00976563,0.0102295,
6868,0.00427246,0.0102539,
6870,-0.0256348,0.0103333,
6872,0.010376,0.0102722,
6874,0.00427246,0.0103027,
6876,-0.000610352,0.010199,
6878,0.00732422,0.0101196,
6880,0.00244141,0.00997314,
6882,0.00244141,0.00996094,
6884,0.0128174,0.0100586,
6886,0.00244141,0.0100586,
6888,0.0238037,0.0101685,
6890,0.00488281,0.010022,
6892,0.0152588,0.010083,
6894,0.0354004,0.0103333,
6896,0.000610352,0.0101563,
6898,-0.0012207,0.00987549,
6900,0.00549316,0.00987549,
6902,0.00183105,0.00980225,
6904,0.0115967,0.00982056,
6906,-0.0164795,0.0098999,
6908,-0.0256348,0.00994873,
6910,-0.0231934,0.0100037,
6912,0.0238037,0.0101746,
6914,-0.0262451,0.0104187,
6916,-0.00366211,0.0104553,
6918,-0.0378418,0.0107178,
6920,0.00427246,0.0106995,
6922,-0.0012207,0.0106628,
6924,-0.000610352,0.0105957,
6926,-0.0140381,0.0105469,
6928,-0.0152588,0.0105103,
6930,-0.00976563,0.0104919,
6932,-0.012207,0.0105042,
6934,-0.012207,0.0105713,
6936,-0.010376,0.0106262,
6938,-0.010376,0.0106201,
6940,-0.0146484,0.0107666,
6942,0.00244141,0.0107239,
6944,-0.00732422,0.0106018,
6946,-0.0115967,0.010675,
6948,0.00671387,0.0106079,
6950,0.00427246,0.0106201,
6952,-0.00549316,0.0106567,
6954,-0.0152588,0.0107544,
6956,-0.000610352,0.0106689,
6958,-0.0012207,0.0106567,
6960,-0.0109863,0.0105957,
6962,0,0.0102966,
6964,-0.00915527,0.0102478,
6966,0.00549316,0.0102234,
6968,-0.00976563,0.0101379,
6970,0.00244141,0.0101196,
6972,0.0195313,0.0103149,
6974,-0.00244141,0.0101563,
6976,0.0134277,0.00986328,
6978,0.00488281,0.00987549,
6980,0.00610352,0.00985718,
6982,0.0140381,0.009729,
6984,0.0305176,0.00999146,
6986,-0.00244141,0.00997314,
6988,0.00305176,0.00991211,
6990,-0.010376,0.00985107,
6992,-0.0372314,0.010144,
6994,-0.0012207,0.0100952,
6996,-0.0189209,0.0102234,
6998,-0.0146484,0.0102539,
7000,-0.0183105,0.010376,
7002,-0.0256348,0.0106201,
7004,0.00244141,0.0106079,
7006,-0.0140381,0.0107361,
7008,-0.00732422,0.0107422,
7010,-0.000610352,0.010675,
7012,0,0.0105469,
7014,-0.00427246,0.0104614,
7016,-0.012207,0.0105103,
7018,-0.00366211,0.0105286,
7020,0.00305176,0.0105408,
7022,-0.000610352,0.0104065,
7024,-0.0164795,0.0103699,
7026,0.0158691,0.0105225,
7028,0.00366211,0.0104126,
7030,-0.00305176,0.0101746,
7032,-0.0109863,0.0100769,
7034,-0.00305176,0.00993652,
7036,-0.00366211,0.0098938,
7038,0.0152588,0.00991821,
7040,0.00854492,0.00983276,
7042,0,0.0097168,
7044,-0.020752,0.0098938,
7046,-0.0170898,0.00992432,
7048,0.0128174,0.010022,
7050,-0.010376,0.0100952,
7052,-0.0183105,0.0102051,
7054,-0.0189209,0.0103821,
7056,-0.0177002,0.0104736,
7058,-0.0177002,0.010498,
7060,-0.012207,0.0105713,
7062,0.0164795,0.0106628,
7064,0.0109863,0.0106201,
7066,0.010376,0.0106262,
7068,-0.00732422,0.0106567,
7070,0.000610352,0.0104065,
7072,0.00488281,0.0103516,
7074,0.00976563,0.0104065,
7076,0.012207,0.0105225,
7078,-0.0402832,0.0108521,
7080,-0.0183105,0.0110107,
7082,-0.012207,0.0111084,
7084,0.00488281,0.0110291,
7086,-0.00183105,0.0110229,
7088,-0.0274658,0.0110596,
7090,-0.0170898,0.0111816,
7092,-0.00244141,0.0110535,
7094,-0.0012207,0.0107117,
7096,0,0.0107056,
7098,-0.00732422,0.0107666,
7100,-0.0250244,0.0109619,
7102,0.0134277,0.0110779,
7104,-0.00976563,0.0110596,
7106,-0.0128174,0.0110229,
7108,-0.0012207,0.0107788,
7110,-0.00366211,0.0105835,
7112,0.0238037,0.0105835,
7114,0.0152588,0.0104736,
7116,0.000610352,0.0104431,
7118,-0.00793457,0.010144,
7120,-0.00244141,0.0101257,
7122,0.00366211,0.0101501,
7124,-0.0158691,0.0103027,
7126,-0.0152588,0.0103149,
7128,-0.0183105,0.0103455,
7130,-0.0219727,0.0104675,
7132,-0.00976563,0.0104431,
7134,-0.00854492,0.0104065,
7136,-0.00854492,0.0103882,
7138,0.0213623,0.010498,
7140,0.0140381,0.0104919,
7142,-0.00976563,0.0105652,
7144,0.0183105,0.010675,
7146,0.00610352,0.0106201,
7148,-0.0183105,0.0107361,
7150,0.00366211,0.01073,
7152,-0.0213623,0.0108887,
7154,-0.00671387,0.0108032,
7156,-0.00793457,0.0108765,
7158,0.00305176,0.0108948,
7160,-0.0189209,0.0109741,
7162,-0.0244141,0.0112183,
7164,-0.0109863,0.0112366,
7166,-0.00305176,0.0112122,
7168,-0.00549316,0.0111694,
7170,-0.0177002,0.011322,
7172,-0.0128174,0.0112549,
7174,-0.0183105,0.0114136,
7176,-0.0170898,0.0114502,
7178,0.00244141,0.0114258,
7180,-0.0177002,0.0115417,
7182,0.00549316,0.0114563,
7184,0.00610352,0.0112122,
7186,0.00549316,0.0112427,
7188,0.0213623,0.0114258,
7190,-0.010376,0.0114258,
7192,-0.0231934,0.0112854,
7194,0.0134277,0.0114075,
7196,0.0109863,0.0113281,
7198,-0.00244141,0.0112061,
7200,-0.0201416,0.0112244,
7202,-0.00732422,0.0110413,
7204,-0.00671387,0.011084,
7206,-0.010376,0.0110474,
7208,0.00671387,0.0110413,
7210,0.0012207,0.0110474,
7212,-0.00427246,0.0110901,
7214,-0.0201416,0.0112488,
7216,-0.0115967,0.0112427,
7218,0,0.0112061,
7220,-0.0170898,0.0113464,
7222,-0.00732422,0.0114136,
7224,-0.0177002,0.0114258,
7226,-0.00793457,0.0113464,
7228,0.00671387,0.011377,
7230,0.00366211,0.0113831,
7232,0.00732422,0.0113464,
7234,-0.00732422,0.0113892,
7236,0.00244141,0.011377,
7238,0.0164795,0.0113892,
7240,-0.00854492,0.0113892,
7242,-0.0134277,0.0115234,
7244,-0.0134277,0.0114502,
7246,-0.0140381,0.0114197,
7248,-0.0134277,0.0114258,
7250,-0.010376,0.0114258,
7252,-0.0134277,0.011377,
7254,-0.00732422,0.011261,
7256,0,0.011084,
7258,0.00244141,0.0109314,
7260,0.000610352,0.0108154,
7262,0.0164795,0.0108154,
7264,0.012207,0.0108276,
7266,0.00366211,0.0107605,
7268,0.00793457,0.0107666,
7270,0.00549316,0.0108154,
7272,0.0012207,0.0107788,
7274,-0.00732422,0.0107544,
7276,-0.00610352,0.0106934,
7278,-0.00305176,0.010321,
7280,-0.0109863,0.0102478,
7282,-0.0164795,0.0102905,
7284,-0.00305176,0.0102722,
7286,-0.00549316,0.0103088,
7288,0.00183105,0.0100525,
7290,-0.0134277,0.0100159,
7292,0.00793457,0.0100708,
7294,0.00427246,0.0101013,
7296,-0.00183105,0.0101196,
7298,0.012207,0.0101685,
7300,0.00488281,0.00996704,
7302,0.00915527,0.00992432,
7304,0.0128174,0.00995483,
7306,0.00366211,0.00986328,
7308,0.0170898,0.010022,
7310,-0.0201416,0.0101868,
7312,-0.0128174,0.0100769,
7314,-0.00488281,0.00997314,
7316,-0.00549316,0.010022,
7318,-0.0317383,0.01026,
7320,-0.0268555,0.0105042,
7322,-0.00549316,0.0105225,
7324,0.0134277,0.010498,
7326,-0.00244141,0.0103699,
7328,-0.00488281,0.0102356,
7330,0.00183105,0.0100342,
7332,0.0109863,0.0100464,
7334,0.00610352,0.010022,
7336,0.00610352,0.00999756,
7338,0.00610352,0.00984497,
7340,0.00488281,0.00975342,
7342,-0.0201416,0.00985718,
7344,0.00488281,0.0097229,
7346,-0.00244141,0.00968628,
7348,-0.00915527,0.00959473,
7350,-0.0134277,0.00969238,
7352,-0.0140381,0.00961914,
7354,-0.0128174,0.00968018,
7356,-0.0201416,0.00980225,
7358,-0.0134277,0.00990601,
7360,-0.00183105,0.00973511,
7362,0,0.00949097,
7364,-0.00793457,0.00946045,
7366,0.00549316,0.00948486,
7368,0.00244141,0.00945435,
7370,0.00488281,0.00932617,
7372,0.00976563,0.00929565,
7374,0,0.00911255,
7376,0.0299072,0.00924072,
7378,0.0231934,0.00944824,
7380,0.00915527,0.00936279,
7382,-0.0256348,0.00956421,
7384,0.00183105,0.00952148,
7386,0.0134277,0.00960083,
7388,-0.00549316,0.00944214,
7390,-0.032959,0.00966797,
7392,-0.0256348,0.00969238,
7394,-0.0262451,0.00982056,
7396,0.0012207,0.0097229,
7398,-0.00488281,0.00974731,
7400,0.00671387,0.00961304,
7402,0.0109863,0.00964966,
7404,-0.00976563,0.00968018,
7406,0.00732422,0.00964966,
7408,0.0292969,0.00987549,
7410,-0.000610352,0.00986938,
7412,-0.0140381,0.00996704,
7414,0.00183105,0.00978394,
7416,-0.0262451,0.00993042,
7418,-0.0286865,0.0102173,
7420,0.00366211,0.010083,
7422,-0.0177002,0.0101868,
7424,-0.020752,0.0102173,
7426,-0.010376,0.0102417,
7428,-0.00305176,0.0102051,
7430,-0.0109863,0.0102783,
7432,-0.00183105,0.0102234,
7434,0.0115967,0.0102661,
7436,-0.0183105,0.0104248,
7438,0.00671387,0.0103271,
7440,-0.0164795,0.0104065,
7442,0.00732422,0.0103455,
7444,-0.0183105,0.0103943,
7446,-0.00549316,0.0103088,
7448,0.00183105,0.0101929,
7450,-0.0128174,0.0102173,
7452,0.020752,0.0102905,
7454,0.0012207,0.0102295,
7456,0.00671387,0.0102966,
7458,0.012207,0.0103943,
7460,-0.00244141,0.0104126,
7462,0.0195313,0.0104431,
7464,-0.0152588,0.0104736,
7466,-0.0231934,0.0106689,
7468,-0.0152588,0.0107422,
7470,-0.0189209,0.0108765,
7472,-0.0201416,0.0110657,
7474,-0.0268555,0.011261,
7476,-0.0134277,0.0113342,
7478,-0.012207,0.0114258,
7480,0.00488281,0.0113647,
7482,-0.00488281,0.0112488,
7484,0.00427246,0.011261,
7486,-0.00549316,0.011261,
7488,0.0134277,0.011377,
7490,0.00915527,0.0113342,
7492,-0.00976563,0.0113525,
7494,-0.0177002,0.0114868,
7496,-0.0140381,0.0116089,
7498,0.010376,0.0115906,
7500,0.00427246,0.0115845,
7502,-0.0140381,0.0116333,
7504,-0.0256348,0.0117615,
7506,0.00366211,0.0117615,
7508,-0.012207,0.0117126,
7510,-0.00549316,0.0115662,
7512,-0.00610352,0.011499,
7514,-0.0195313,0.0116455,
7516,-0.0189209,0.0117798,
7518,-0.010376,0.0115662,
7520,-0.0164795,0.0114624,
7522,-0.00488281,0.0114563,
7524,0.0183105,0.0115051,
7526,-0.00427246,0.0115234,
7528,-0.00244141,0.011499,
7530,0,0.0114807,
7532,0.0115967,0.0114868,
7534,0.010376,0.0115295,
7536,-0.00305176,0.011499,
7538,-0.00305176,0.0114685,
7540,-0.020752,0.0116272,
7542,-0.0262451,0.0116882,
7544,-0.0140381,0.0117798,
7546,-0.00915527,0.0118469,
7548,-0.0183105,0.0119385,
7550,-0.0268555,0.0120728,
7552,-0.020752,0.0121399,
7554,-0.00915527,0.0121033,
7556,-0.0012207,0.0119141,
7558,-0.0115967,0.0118958,
7560,-0.00671387,0.0119446,
7562,-0.00610352,0.0120056,
7564,-0.00244141,0.0119507,
7566,-0.00976563,0.0119934,
7568,0.0134277,0.0121033,
7570,0.00610352,0.0121155,
7572,0.00427246,0.0120605,
7574,-0.00671387,0.0121277,
7576,-0.00488281,0.0118774,
7578,0.00244141,0.0116699,
7580,-0.00549316,0.0116333,
7582,-0.0219727,0.0115967,
7584,-0.0128174,0.0117065,
7586,-0.0219727,0.011792,
7588,-0.022583,0.0119629,
7590,-0.00610352,0.0116943,
7592,0.000610352,0.0114441,
7594,0.00244141,0.0112061,
7596,0.00244141,0.0112183,
7598,-0.00305176,0.0112,
7600,-0.010376,0.0112366,
7602,0.0238037,0.0113647,
7604,0.000610352,0.0112732,
7606,-0.00305176,0.0112305,
7608,0.00244141,0.0109619,
7610,-0.00366211,0.0109924,
7612,0.0183105,0.0110352,
7614,0.00671387,0.011084,
7616,-0.0177002,0.0109985,
7618,0.00183105,0.01073,
7620,0.00976563,0.010791,
7622,0.0109863,0.0107239,
7624,-0.0354004,0.0108704,
7626,0.00305176,0.0107971,
7628,-0.000610352,0.0107727,
7630,0.00183105,0.0106812,
7632,-0.0299072,0.0109619,
7634,-0.00488281,0.0108948,
7636,0.00610352,0.0107727,
7638,-0.00976563,0.0108032,
7640,-0.00915527,0.01073,
7642,0.00976563,0.0107544,
7644,-0.00244141,0.0105957,
7646,-0.012207,0.0106628,
7648,0.0189209,0.0108337,
7650,-0.0115967,0.0108215,
7652,-0.0195313,0.0108093,
7654,-0.0140381,0.0109375,
7656,-0.0109863,0.0109802,
7658,-0.0256348,0.0111145,
7660,-0.0140381,0.0112305,
7662,-0.010376,0.0111389,
7664,0.010376,0.0110901,
7666,-0.0201416,0.0110596,
7668,0.00854492,0.0109924,
7670,0.00427246,0.0108459,
7672,0.0140381,0.0107849,
7674,-0.0219727,0.0107361,
7676,-0.0183105,0.0107849,
7678,0.0183105,0.0108459,
7680,-0.0109863,0.010907,
7682,-0.022583,0.011084,
7684,-0.0177002,0.0112183,
7686,-0.012207,0.0112854,
7688,0.0109863,0.011261,
7690,-0.00305176,0.0112,
7692,-0.012207,0.0112244,
7694,-0.0109863,0.0111572,
7696,0.000610352,0.0110229,
7698,-0.00732422,0.0109924,
7700,0.00183105,0.010968,
7702,0.00244141,0.0108521,
7704,-0.0158691,0.0107544,
7706,-0.00366211,0.0107544,
7708,0,0.0106323,
7710,-0.0219727,0.0107971,
7712,0.00732422,0.0108093,
7714,-0.000610352,0.0106201,
7716,0.0109863,0.0105408,
7718,0.0109863,0.0105469,
7720,0.0170898,0.010553,
7722,0.012207,0.0106262,
7724,-0.00488281,0.0104919,
7726,0.020752,0.0106567,
7728,0.0238037,0.0108704,
7730,-0.010376,0.0109741,
7732,0,0.0108582,
7734,-0.0140381,0.0108948,
7736,0,0.0108643,
7738,-0.00854492,0.0109192,
7740,-0.0109863,0.0108215,
7742,-0.0195313,0.0107544,
7744,0.00244141,0.0106384,
7746,-0.00793457,0.0106262,
7748,-0.0213623,0.0106567,
7750,-0.0274658,0.0106628,
7752,-0.00427246,0.010498,
7754,-0.000610352,0.0104126,
7756,-0.00732422,0.0104736,
7758,-0.010376,0.0104614,
7760,-0.00793457,0.0104736,
7762,0.000610352,0.0104187,
7764,-0.00854492,0.0104797,
7766,0.00915527,0.0104736,
7768,-0.000610352,0.0103455,
7770,-0.000610352,0.0102905,
7772,0.020752,0.0104553,
7774,-0.00183105,0.0104065,
7776,-0.00427246,0.0104004,
7778,0.00610352,0.010437,
7780,0.0115967,0.010498,
7782,0.0201416,0.0104797,
7784,-0.0262451,0.010614,
7786,-0.00244141,0.0104187,
7788,-0.00732422,0.0102661,
7790,-0.0115967,0.010321,
7792,-0.0109863,0.0104248,
7794,-0.012207,0.0105225,
7796,-0.0189209,0.0106873,
7798,-0.0158691,0.0108154,
7800,-0.00244141,0.0107361,
7802,-0.00915527,0.0105896,
7804,-0.00671387,0.0106506,
7806,0.00915527,0.0107117,
7808,-0.00976563,0.0107849,
7810,0.022583,0.0109741,
7812,-0.000610352,0.0107971,
7814,-0.00732422,0.0108032,
7816,0.00610352,0.0106873,
7818,-0.012207,0.010791,
7820,-0.0164795,0.0108582,
7822,0.00366211,0.0107849,
7824,-0.00854492,0.0105164,
7826,-0.00366211,0.0105225,
7828,0.00427246,0.0105591,
7830,-0.00488281,0.0105896,
7832,-0.00244141,0.0103149,
7834,0.00183105,0.0102844,
7836,0.000610352,0.0102295,
7838,0.0128174,0.01026,
7840,0.012207,0.0102905,
7842,-0.012207,0.0103149,
7844,-0.0152588,0.0104431,
7846,0.0140381,0.0104614,
7848,-0.00732422,0.0103455,
7850,-0.00366211,0.0102661,
7852,-0.00305176,0.0101013,
7854,-0.0134277,0.0100952,
7856,-0.00305176,0.0100159,
7858,0.00549316,0.00981445,
7860,-0.0164795,0.00983887,
7862,-0.00305176,0.00976563,
7864,-0.00732422,0.00973511,
7866,-0.0128174,0.00966187,
7868,-0.0219727,0.00979614,
7870,-0.0183105,0.00993652,
7872,-0.0128174,0.00992432,
7874,-0.0238037,0.00994263,
7876,-0.0128174,0.0098877,
7878,-0.00305176,0.00973511,
7880,-0.0244141,0.00986938,
7882,-0.00244141,0.00966797,
7884,-0.00366211,0.00952759,
7886,0.0012207,0.00941772,
7888,0.00488281,0.00935669,
7890,-0.0158691,0.00948486,
7892,0.00366211,0.00939941,
7894,-0.00183105,0.00930786,
7896,-0.00305176,0.00933228,
7898,-0.00366211,0.00929565,
7900,-0.0012207,0.00928955,
7902,-0.0183105,0.00944824,
7904,-0.00244141,0.00931396,
7906,0.00427246,0.00932007,
7908,-0.022583,0.0095459,
7910,-0.00488281,0.009375,
7912,-0.00732422,0.009375,
7914,-0.00915527,0.00946045,
7916,-0.000610352,0.00935669,
7918,-0.00244141,0.00927124,
7920,-0.00610352,0.00916138,
7922,0.00671387,0.00910645,
7924,-0.00366211,0.00909424,
7926,-0.000610352,0.00889282,
7928,0.00732422,0.00872803,
7930,0.0164795,0.00878906,
7932,0.00976563,0.00888672,
7934,-0.00244141,0.00877075,
7936,-0.0164795,0.00893555,
7938,0,0.0088501,
7940,0.00305176,0.00877075,
7942,-0.00305176,0.00860596,
7944,-0.0195313,0.00877686,
7946,0.00305176,0.00872803,
7948,0.00671387,0.00858154,
7950,-0.0012207,0.00831909,
7952,0.0274658,0.00855103,
7954,-0.00915527,0.00863647,
7956,-0.0170898,0.00873413,
7958,0.0158691,0.00878906,
7960,-0.00183105,0.00872803,
7962,-0.0164795,0.00888672,
7964,-0.020752,0.00900879,
7966,-0.043335,0.00935059,
7968,-0.00244141,0.0093689,
7970,-0.0158691,0.00952148,
7972,-0.010376,0.00941772,
7974,-0.0158691,0.00955811,
7976,0,0.00951538,
7978,0.00366211,0.00949097,
7980,-0.0244141,0.00961914,
7982,0.00305176,0.00944824,
7984,-0.0115967,0.00930176,
7986,0.00366211,0.00931396,
7988,0.00549316,0.00929565,
7990,-0.00610352,0.00924072,
7992,-0.00427246,0.00917358,
7994,0.010376,0.00915527,
7996,-0.00671387,0.0090332,
7998,0.0128174,0.00900269,
8000,-0.00915527,0.00906982,
8002,-0.00427246,0.009021,
8004,0.0012207,0.00896606,
8006,0.00183105,0.00889282,
8008,0.000610352,0.00880127,
8010,-0.0177002,0.00875244,
8012,-0.0140381,0.00888672,
8014,0.00366211,0.0088501,
8016,-0.0012207,0.00880127,
8018,-0.010376,0.00878296,
8020,-0.00854492,0.00870361,
8022,0.0115967,0.00878296,
8024,0.0128174,0.00882568,
8026,0.0115967,0.00890503,
8028,-0.00244141,0.00888672,
8030,-0.00366211,0.00887451,
8032,0.00732422,0.00892334,
8034,0,0.00890503,
8036,-0.00549316,0.00895386,
8038,-0.0183105,0.00900879,
8040,-0.0280762,0.00916748,
8042,-0.0146484,0.00919189,
8044,-0.0146484,0.00918579,
8046,-0.00854492,0.00913086,
8048,-0.00610352,0.00911865,
8050,0.000610352,0.00908813,
8052,-0.00244141,0.00908203,
8054,0.00610352,0.00900879,
8056,0.00549316,0.0090332,
8058,0,0.00897827,
8060,-0.0109863,0.00892334,
8062,-0.0012207,0.00890503,
8064,-0.0213623,0.00904541,
8066,-0.0109863,0.0090271,
8068,-0.0109863,0.00891724,
8070,-0.0177002,0.00891113,
8072,-0.00732422,0.0088562,
8074,-0.00305176,0.00864868,
8076,0.0134277,0.00865479,
8078,0.00305176,0.00865479,
8080,-0.0134277,0.00854492,
8082,0.00610352,0.00858154,
8084,0.0115967,0.00866089,
8086,0.00305176,0.0086792,
8088,-0.0115967,0.00874634,
8090,-0.0274658,0.0088623,
8092,-0.0109863,0.00893555,
8094,-0.0115967,0.0090332,
8096,-0.0250244,0.00925293,
8098,-0.00305176,0.00924683,
8100,-0.0140381,0.009375,
8102,-0.00732422,0.00926514,
8104,0.00915527,0.00933228,
8106,0.00305176,0.00932007,
8108,0.0213623,0.00930786,
8110,-0.012207,0.0093811,
8112,0.00366211,0.00934448,
8114,-0.00427246,0.00929565,
8116,0.00183105,0.00930786,
8118,-0.0183105,0.00946655,
8120,-0.00671387,0.00947266,
8122,-0.0177002,0.00958252,
8124,-0.0158691,0.00970459,
8126,0.0109863,0.00980835,
8128,0.0256348,0.00999146,
8130,-0.0201416,0.0100281,
8132,0.0115967,0.0100464,
8134,-0.00244141,0.0100464,
8136,-0.00671387,0.00994873,
8138,0.00549316,0.0100037,
8140,-0.0128174,0.0101013,
8142,-0.00793457,0.0101501,
8144,0.0128174,0.010083,
8146,0.0195313,0.0102478,
8148,-0.00793457,0.01026,
8150,-0.0286865,0.0105347,
8152,0.0134277,0.0103943,
8154,0.010376,0.0104065,
8156,-0.0164795,0.0104004,
8158,-0.000610352,0.0102478,
8160,-0.0299072,0.0105286,
8162,-0.00793457,0.0104431,
8164,-0.00366211,0.0102722,
8166,0.00976563,0.00993652,
8168,0,0.00991211,
8170,0.00854492,0.00983887,
8172,-0.010376,0.00983887,
8174,-0.0128174,0.00980835,
8176,-0.012207,0.00993042,
8178,-0.0115967,0.0100098,
8180,-0.020752,0.00997314,
8182,-0.00183105,0.00996094,
8184,-0.00976563,0.00994263,
8186,-0.010376,0.0100098,
8188,0.010376,0.0100586,
8190,-0.0146484,0.010144,
8192,0.00671387,0.0101685,
8194,0.00183105,0.010083,
8196,0.0012207,0.0100281,
8198,-0.00915527,0.00999146,
8200,-0.00488281,0.00994873,
8202,0.00244141,0.00993042,
8204,-0.0109863,0.0100281,
8206,0.00549316,0.0100647,
8208,-0.00244141,0.010083,
8210,-0.00793457,0.00998535,
8212,0.00610352,0.00990601,
8214,0.000610352,0.00987549,
8216,0.020752,0.0100708,
8218,-0.00305176,0.00999756,
8220,-0.0164795,0.0100769,
8222,0.0012207,0.00997314,
8224,0.00915527,0.00993652,
8226,-0.00610352,0.00988159,
8228,-0.0164795,0.010022,
8230,-0.0152588,0.0101379,
8232,0.00366211,0.0101013,
8234,-0.0140381,0.0102417,
8236,-0.000610352,0.0101929,
8238,0.00244141,0.0100342,
8240,-0.00183105,0.00977173,
8242,-0.00305176,0.00965576,
8244,-0.0115967,0.00962524,
8246,-0.012207,0.00966187,
8248,0.00244141,0.00962524,
8250,-0.0158691,0.00977783,
8252,-0.032959,0.010083,
8254,-0.00732422,0.0100952,
8256,-0.0164795,0.0102051,
8258,-0.0189209,0.0103943,
8260,-0.00732422,0.0103577,
8262,-0.00976563,0.0104431,
8264,-0.00244141,0.0102539,
8266,-0.00671387,0.0102112,
8268,-0.00854492,0.0101868,
8270,0.000610352,0.0100159,
8272,0.00793457,0.010022,
8274,-0.00732422,0.0100647,
8276,0,0.00993042,
8278,0.00915527,0.00999146,
8280,-0.0238037,0.0100952,
8282,0.0189209,0.0102234,
8284,0.0115967,0.0102234,
8286,-0.0183105,0.010376,
8288,0.00305176,0.0102905,
8290,0.0189209,0.0102051,
8292,0.00305176,0.0101257,
8294,-0.00549316,0.0100647,
8296,-0.0170898,0.00998535,
8298,-0.00793457,0.0100342,
8300,-0.0152588,0.0100464,
8302,-0.0109863,0.010083,
8304,-0.0177002,0.0101685,
8306,-0.0164795,0.0103027,
8308,-0.0195313,0.0102844,
8310,0.0115967,0.0102783,
8312,0.0134277,0.010376,
8314,-0.0109863,0.0104431,
8316,-0.012207,0.0105469,
8318,-0.000610352,0.0103699,
8320,0.00671387,0.0103699,
8322,-0.00793457,0.0102722,
8324,-0.0189209,0.0103027,
8326,-0.010376,0.0102966,
8328,-0.00854492,0.0101257,
8330,-0.012207,0.0100464,
8332,0,0.00993042,
8334,0.0183105,0.0100891,
8336,0.0134277,0.0101563,
8338,0.0244141,0.0103455,
8340,0.00915527,0.0103088,
8342,0.0152588,0.0103821,
8344,-0.00549316,0.0103088,
8346,-0.000610352,0.0101196,
8348,0.00549316,0.0100952,
8350,0.0164795,0.00997314,
8352,-0.00549316,0.0098938,
8354,-0.0262451,0.0100525,
8356,-0.0164795,0.0100525,
8358,-0.0170898,0.0102173,
8360,0.012207,0.0100403,
8362,0.010376,0.0100647,
8364,-0.0158691,0.0101868,
8366,-0.00793457,0.0101685,
8368,0.010376,0.0102722,
8370,-0.0109863,0.0102966,
8372,0.00915527,0.0102844,
8374,-0.0378418,0.0105347,
8376,-0.00244141,0.010437,
8378,-0.00366211,0.0103577,
8380,-0.0189209,0.0103394,
8382,-0.0341797,0.0106628,
8384,-0.00976563,0.0106628,
8386,0.00488281,0.0106079,
8388,0.00183105,0.0105225,
8390,-0.0189209,0.0105652,
8392,-0.020752,0.0107056,
8394,-0.00427246,0.01073,
8396,-0.00915527,0.0108093,
8398,-0.0140381,0.0108582,
8400,-0.00915527,0.0109009,
8402,-0.0170898,0.0110474,
8404,-0.00976563,0.0110352,
8406,-0.0158691,0.0111389,
8408,0.00549316,0.0111694,
8410,0.0109863,0.0112,
8412,-0.000610352,0.011145,
8414,-0.0146484,0.0112854,
8416,-0.00244141,0.0111023,
8418,0.00976563,0.0111694,
8420,-0.0115967,0.0111206,
8422,-0.00366211,0.011145,
8424,-0.010376,0.0111572,
8426,0.000610352,0.0111023,
8428,0.0164795,0.0111023,
8430,-0.0231934,0.0111816,
8432,0.00854492,0.0112305,
8434,-0.00244141,0.0111145,
8436,-0.0158691,0.0112671,
8438,0.012207,0.0113647,
8440,-0.0195313,0.0115417,
8442,-0.0146484,0.0116577,
8444,-0.0134277,0.011676,
8446,-0.0152588,0.0117065,
8448,0.00366211,0.0117188,
8450,-0.012207,0.0116821,
8452,-0.000610352,0.0113586,
8454,-0.00366211,0.011322,
8456,0.0134277,0.0112915,
8458,-0.00183105,0.0111206,
8460,0.0152588,0.0112,
8462,0.0238037,0.0113403,
8464,-0.000610352,0.011322,
8466,-0.0115967,0.0113708,
8468,0.00732422,0.0113586,
8470,-0.00488281,0.0114014,
8472,-0.00244141,0.0113464,
8474,0.000610352,0.0112793,
8476,-0.00305176,0.0113098,
8478,-0.020752,0.0114258,
8480,-0.0231934,0.0114197,
8482,0,0.0112305,
8484,-0.000610352,0.0111206,
8486,-0.00549316,0.0109924,
8488,-0.0158691,0.0111206,
8490,-0.0292969,0.0112244,
8492,-0.00915527,0.0112854,
8494,0,0.0112305,
8496,-0.00610352,0.0111206,
8498,-0.00305176,0.0110718,
8500,-0.0170898,0.0110901,
8502,-0.00366211,0.0110168,
8504,-0.0219727,0.0110596,
8506,-0.00427246,0.0109375,
8508,0.00610352,0.0108032,
8510,-0.0115967,0.0108032,
8512,-0.00915527,0.0107605,
8514,-0.0164795,0.0108154,
8516,-0.00244141,0.0107178,
8518,-0.0128174,0.0108398,
8520,-0.00549316,0.0108276,
8522,-0.0158691,0.010907,
8524,-0.010376,0.0108215,
8526,-0.00671387,0.0107849,
8528,-0.0134277,0.0108337,
8530,-0.00732422,0.0107849,
8532,-0.00854492,0.0108704,
