Dani_A_1-L01
Gráfico creado el:2026-06-03 16:09:48.152
Registro en:2026-06-03 16:28:36.906
2 mseg/muestras
2 canales
EMG
mV
EMG Integrado
mV-sec
milliSec,CH1,CH40,
,87298 samples,87298 samples,
0,-0.0189209,0.000189209,
2,0.00183105,0.00020752,
4,-0.020752,0.000415039,
6,-0.0189209,0.000604248,
8,-0.010376,0.000708008,
10,-0.0164795,0.000872803,
12,-0.00549316,0.000927734,
14,0,0.000927734,
16,-0.00305176,0.000958252,
18,-0.00488281,0.00100708,
20,-0.00976563,0.00110474,
22,-0.00976563,0.00120239,
24,-0.0128174,0.00133057,
26,-0.0170898,0.00150146,
28,-0.00244141,0.00152588,
30,-0.00915527,0.00161743,
32,-0.000610352,0.00162354,
34,-0.00915527,0.00171509,
36,-0.00610352,0.00177612,
38,0.00366211,0.00181274,
40,-0.000610352,0.00181885,
42,0.0128174,0.00194702,
44,0.00610352,0.00200806,
46,-0.0134277,0.00214233,
48,-0.00183105,0.00216064,
50,-0.00915527,0.0022522,
52,0.00976563,0.00234985,
54,0.0012207,0.00236206,
56,-0.00671387,0.0024292,
58,-0.0115967,0.00254517,
60,-0.0140381,0.00268555,
62,0.00549316,0.00274048,
64,0.0012207,0.00275269,
66,0.00854492,0.00283813,
68,0.00305176,0.00286865,
70,-0.0170898,0.00303955,
72,0.00488281,0.00308838,
74,-0.0012207,0.00310059,
76,0.00976563,0.00319824,
78,-0.0183105,0.00338135,
80,-0.0177002,0.00355835,
82,-0.0109863,0.00366821,
84,-0.010376,0.00377197,
86,-0.00549316,0.0038269,
88,-0.010376,0.00393066,
90,-0.0213623,0.00414429,
92,0.0012207,0.00415649,
94,0.00366211,0.00419312,
96,-0.00854492,0.00427856,
98,-0.0158691,0.00443726,
100,-0.020752,0.00464478,
102,0.0012207,0.00465698,
104,-0.0183105,0.00484009,
106,-0.0134277,0.00497437,
108,0.000610352,0.00498047,
110,-0.00244141,0.00500488,
112,-0.00427246,0.00504761,
114,-0.00488281,0.00509644,
116,0.000610352,0.00510254,
118,0.00854492,0.00518799,
120,-0.00427246,0.00523071,
122,-0.00305176,0.00526123,
124,-0.00366211,0.00529785,
126,0.00549316,0.00535278,
128,0.00366211,0.0053894,
130,-0.00610352,0.00545044,
132,-0.0250244,0.00570068,
134,-0.00915527,0.00579224,
136,0.00854492,0.00587769,
138,-0.0274658,0.00615234,
140,-0.0128174,0.00628052,
142,-0.0109863,0.00639038,
144,-0.0158691,0.00654907,
146,0.00610352,0.00661011,
148,-0.00305176,0.00664063,
150,-0.0134277,0.0067749,
152,0.010376,0.00687866,
154,-0.00488281,0.00692749,
156,-0.0140381,0.00706787,
158,-0.010376,0.00717163,
160,-0.0244141,0.00741577,
162,-0.00427246,0.0074585,
164,-0.0170898,0.00762939,
166,0.0152588,0.00778198,
168,-0.0146484,0.00792847,
170,-0.00427246,0.00797119,
172,-0.0115967,0.00808716,
174,-0.00549316,0.00814209,
176,0,0.00814209,
178,0.00366211,0.00817871,
180,-0.0158691,0.0083374,
182,-0.00854492,0.00842285,
184,-0.00488281,0.00847168,
186,-0.0012207,0.00848389,
188,-0.012207,0.00860596,
190,-0.0115967,0.00872192,
192,0.00793457,0.00880127,
194,-0.00610352,0.0088623,
196,-0.0164795,0.0090271,
198,-0.00854492,0.00911255,
200,-0.00183105,0.00894165,
202,-0.00305176,0.00895386,
204,-0.00915527,0.00883789,
206,-0.00244141,0.0086731,
208,0.000610352,0.00857544,
210,0.0170898,0.00858154,
212,-0.00610352,0.00858765,
214,-0.00976563,0.0086853,
216,0.00305176,0.0086853,
218,0.00732422,0.00870972,
220,-0.012207,0.00873413,
222,0,0.00863647,
224,-0.0164795,0.0086731,
226,-0.0109863,0.00861206,
228,-0.00183105,0.00860596,
230,-0.00976563,0.00861206,
232,-0.0195313,0.00880127,
234,0,0.00870972,
236,-0.00427246,0.00869141,
238,-0.0109863,0.00876465,
240,-0.0195313,0.00895386,
242,-0.00244141,0.0088501,
244,-0.00915527,0.00888062,
246,0.00976563,0.00884399,
248,-0.0256348,0.00908203,
250,-0.00854492,0.00907593,
252,0.0408936,0.00938721,
254,-0.022583,0.00960083,
256,-0.0274658,0.00980835,
258,0.00488281,0.00974121,
260,-0.00305176,0.00963135,
262,-0.0128174,0.00970459,
264,-0.010376,0.00979614,
266,-0.010376,0.00981445,
268,-0.0177002,0.00996094,
270,-0.0115967,0.00990601,
272,0.00305176,0.0098877,
274,0.00976563,0.00997314,
276,0.00610352,0.00993652,
278,-0.0170898,0.00992432,
280,0.00305176,0.00977783,
282,-0.000610352,0.00967407,
284,-0.00366211,0.00960693,
286,0,0.009552,
288,0.00183105,0.00946655,
290,-0.0268555,0.00952148,
292,0.00854492,0.00959473,
294,0.00183105,0.00957642,
296,-0.00488281,0.00953979,
298,-0.0183105,0.00956421,
300,0.00244141,0.0093811,
302,-0.0128174,0.00949707,
304,-0.00610352,0.009375,
306,-0.0152588,0.00939331,
308,-0.00793457,0.00946655,
310,0.00427246,0.00948486,
312,0.00549316,0.00949707,
314,-0.0384521,0.00983276,
316,0.00854492,0.00991211,
318,0.022583,0.0100525,
320,-0.0177002,0.0101868,
322,-0.0109863,0.0102661,
324,-0.0152588,0.0103821,
326,-0.00244141,0.0103516,
328,-0.0274658,0.0105896,
330,-0.00305176,0.0105591,
332,-0.00488281,0.0103577,
334,-0.0177002,0.0104431,
336,-0.00427246,0.0104004,
338,-0.0152588,0.0102783,
340,0.00976563,0.0102478,
342,0.00610352,0.010199,
344,-0.00793457,0.0101196,
346,0.00183105,0.0100769,
348,0,0.0100464,
350,0.00488281,0.00996094,
352,0.0115967,0.00997314,
354,-0.00610352,0.00998535,
356,0.00366211,0.00988159,
358,0.0238037,0.0100159,
360,0.0183105,0.00995483,
362,-0.0152588,0.0100647,
364,-0.0012207,0.00990601,
366,0.010376,0.00985718,
368,-0.0140381,0.00985107,
370,0.00488281,0.00985718,
372,0.00244141,0.00976563,
374,-0.0286865,0.00999756,
376,-0.0292969,0.0102905,
378,-0.00427246,0.0102966,
380,-0.00244141,0.0101624,
382,-0.00732422,0.0101501,
384,-0.0317383,0.0104187,
386,-0.00427246,0.0104492,
388,-0.00488281,0.010376,
390,0.00244141,0.0102844,
392,0.00366211,0.0102417,
394,-0.00549316,0.0102356,
396,-0.00244141,0.0100952,
398,0.00915527,0.0101013,
400,-0.00427246,0.0101257,
402,-0.00244141,0.0101196,
404,0.00610352,0.0100891,
406,-0.00427246,0.0101074,
408,0.00671387,0.0101685,
410,0,0.00999756,
412,-0.0128174,0.0100647,
414,0.0012207,0.00997925,
416,0.0158691,0.0101074,
418,0.0213623,0.0102478,
420,0.000610352,0.0101318,
422,0.0115967,0.0102478,
424,0.00610352,0.010144,
426,-0.0128174,0.0101624,
428,-0.010376,0.0102478,
430,-0.00427246,0.0101929,
432,-0.0183105,0.0101807,
434,-0.0323486,0.0105042,
436,-0.0238037,0.0106995,
438,-0.0280762,0.0108704,
440,-0.0250244,0.0109253,
442,0.00488281,0.0109497,
444,-0.000610352,0.0108643,
446,0.00183105,0.0107849,
448,-0.0183105,0.0107117,
450,-0.00732422,0.0106995,
452,0,0.0102905,
454,-0.0012207,0.0100769,
456,-0.0109863,0.00991211,
458,-0.0158691,0.010022,
460,-0.012207,0.0101135,
462,-0.00549316,0.0100403,
464,-0.000610352,0.00994263,
466,-0.00976563,0.00993652,
468,-0.00488281,0.00980835,
470,0.00488281,0.00974121,
472,-0.00732422,0.00978394,
474,0.00366211,0.0097229,
476,-0.00976563,0.00975952,
478,0.00183105,0.00960693,
480,-0.0177002,0.00975342,
482,0.00915527,0.00983887,
484,-0.0134277,0.00993652,
486,-0.020752,0.010144,
488,-0.0134277,0.01026,
490,0,0.00999146,
492,0.0115967,0.010022,
494,-0.0274658,0.0102783,
496,-0.0378418,0.0106079,
498,0.00549316,0.0104797,
500,-0.00854492,0.0105408,
502,-0.020752,0.0106201,
504,-0.00732422,0.0106323,
506,0.000610352,0.0104858,
508,0.0109863,0.0105164,
510,-0.022583,0.0106995,
512,-0.0238037,0.0108826,
514,0.00427246,0.0105408,
516,0.0115967,0.0105713,
518,-0.0140381,0.0104858,
520,-0.0250244,0.0105591,
522,-0.0213623,0.0106628,
524,-0.00244141,0.0105347,
526,0.0146484,0.0106567,
528,-0.0115967,0.010498,
530,-0.012207,0.0105896,
532,-0.000610352,0.0105469,
534,-0.00244141,0.0103943,
536,0.00732422,0.0104248,
538,-0.0146484,0.0104187,
540,-0.010376,0.0104248,
542,0.00183105,0.0103821,
544,-0.0134277,0.010437,
546,-0.0177002,0.0105957,
548,-0.0128174,0.0107239,
550,0.00732422,0.0107483,
552,-0.00732422,0.0107056,
554,-0.00976563,0.0107422,
556,-0.0195313,0.0109009,
558,0.0146484,0.0108093,
560,-0.0115967,0.0107422,
562,-0.0109863,0.0106995,
564,-0.00671387,0.0107544,
566,-0.00305176,0.0106812,
568,0.00671387,0.0106079,
570,-0.00976563,0.0106567,
572,-0.00793457,0.0107117,
574,-0.0213623,0.0106384,
576,-0.0012207,0.0103577,
578,-0.00549316,0.0103699,
580,0.00366211,0.0103821,
582,-0.00854492,0.0103943,
584,-0.00549316,0.0101318,
586,-0.00732422,0.0101624,
588,-0.0189209,0.0103027,
590,-0.0109863,0.0103882,
592,0.00366211,0.0103882,
594,0.00427246,0.010376,
596,-0.0299072,0.0106506,
598,-0.0109863,0.0106689,
600,0,0.0106262,
602,0.00549316,0.0106567,
604,-0.00305176,0.0106262,
606,-0.0183105,0.0107666,
608,-0.00854492,0.0107849,
610,-0.00549316,0.0108398,
612,-0.00732422,0.0107849,
614,-0.00488281,0.0108215,
616,-0.0231934,0.0108948,
618,0.000610352,0.0106873,
620,-0.00183105,0.0106995,
622,-0.00732422,0.0106567,
624,-0.000610352,0.0106018,
626,0,0.0104736,
628,-0.00244141,0.0103943,
630,-0.00183105,0.0103699,
632,-0.00671387,0.0102539,
634,-0.020752,0.0101379,
636,-0.0195313,0.0100952,
638,-0.00610352,0.00987549,
640,-0.0012207,0.00963745,
642,-0.000610352,0.00959473,
644,0.00976563,0.00968628,
646,-0.00793457,0.00974731,
648,-0.0109863,0.00967407,
650,0.012207,0.0097229,
652,0.0195313,0.00991821,
654,-0.0170898,0.0100769,
656,-0.0274658,0.0102417,
658,-0.0274658,0.0103577,
660,-0.0262451,0.010498,
662,0.00671387,0.0105103,
664,-0.0189209,0.0106934,
666,-0.0286865,0.0108826,
668,0.00183105,0.0108521,
670,-0.00366211,0.0108398,
672,-0.0201416,0.010968,
674,-0.00366211,0.010968,
676,0.010376,0.0109741,
678,-0.00244141,0.0109802,
680,0.00793457,0.0108826,
682,-0.0256348,0.0110474,
684,-0.0244141,0.0111572,
686,-0.00793457,0.0110291,
688,-0.00488281,0.0109436,
690,-0.00671387,0.0110107,
692,-0.0109863,0.0110046,
694,-0.022583,0.0109558,
696,-0.012207,0.0106995,
698,0.00366211,0.0106812,
700,0.00488281,0.0106445,
702,-0.00610352,0.010498,
704,-0.00183105,0.0104431,
706,0.00610352,0.010498,
708,-0.00732422,0.0104614,
710,-0.0177002,0.0104126,
712,-0.00915527,0.0102661,
714,-0.00854492,0.0103088,
716,-0.00671387,0.01026,
718,0.00793457,0.010199,
720,-0.022583,0.0101746,
722,-0.0280762,0.0102417,
724,0.0244141,0.0104614,
726,0.00610352,0.010376,
728,-0.0238037,0.010498,
730,-0.00244141,0.0104004,
732,-0.00549316,0.0104492,
734,-0.00183105,0.0104431,
736,-0.00488281,0.0104187,
738,-0.0134277,0.0104065,
740,-0.0012207,0.0103149,
742,-0.00671387,0.0103638,
744,-0.0115967,0.0103455,
746,0,0.0101685,
748,-0.0134277,0.0101746,
750,-0.0146484,0.0102478,
752,-0.00793457,0.0102539,
754,-0.0238037,0.0103943,
756,0.012207,0.010321,
758,0.00549316,0.0102295,
760,-0.0177002,0.0102905,
762,-0.00976563,0.0102783,
764,0.000610352,0.0102173,
766,0.00305176,0.0102173,
768,-0.00976563,0.0102478,
770,-0.00305176,0.0101807,
772,0.00793457,0.0101807,
774,0.00305176,0.00999756,
776,-0.0408936,0.0103943,
778,-0.00915527,0.0104309,
780,0.00976563,0.0104919,
782,-0.00732422,0.0104797,
784,-0.0256348,0.0106812,
786,-0.0201416,0.0108093,
788,-0.00610352,0.0106812,
790,-0.010376,0.010675,
792,-0.020752,0.0108459,
794,-0.00244141,0.0108276,
796,0.00488281,0.0105774,
798,-0.0170898,0.0106384,
800,-0.00244141,0.0106628,
802,0.010376,0.0107117,
804,-0.0286865,0.010968,
806,-0.0134277,0.0109192,
808,0.00671387,0.0109009,
810,-0.00732422,0.0109192,
812,-0.00976563,0.0109436,
814,-0.022583,0.0111206,
816,0.012207,0.0110107,
818,-0.010376,0.0111084,
820,0.0012207,0.0111023,
822,0.00366211,0.0110657,
824,-0.000610352,0.0110657,
826,0.000610352,0.0110718,
828,-0.012207,0.0111694,
830,-0.022583,0.011377,
832,-0.00793457,0.0113892,
834,0.000610352,0.0111877,
836,-0.00427246,0.0110352,
838,-0.0109863,0.011084,
840,-0.0152588,0.0112244,
842,-0.0134277,0.0113525,
844,0.00244141,0.0112793,
846,-0.0012207,0.0112122,
848,-0.0134277,0.0112366,
850,-0.0115967,0.0112305,
852,-0.012207,0.0111572,
854,-0.0250244,0.0112366,
856,-0.00915527,0.0110535,
858,-0.00854492,0.0108643,
860,-0.0134277,0.0107361,
862,-0.00549316,0.0107239,
864,0.00671387,0.0106018,
866,0.00854492,0.0104004,
868,-0.0115967,0.010498,
870,0.00488281,0.0105103,
872,0.0201416,0.0105103,
874,-0.0366211,0.0108398,
876,0.0219727,0.0109558,
878,-0.0219727,0.0111511,
880,0.00488281,0.0111206,
882,0.00549316,0.0109192,
884,-0.0299072,0.0109741,
886,-0.00366211,0.0109314,
888,0.010376,0.0109863,
890,0.00244141,0.0109436,
892,-0.00488281,0.0108826,
894,-0.0177002,0.0108337,
896,-0.00244141,0.0107361,
898,-0.00183105,0.0107178,
900,-0.010376,0.0107727,
902,0.00549316,0.0107666,
904,-0.0219727,0.010968,
906,-0.00427246,0.0109497,
908,-0.00854492,0.0109619,
910,-0.00488281,0.0108337,
912,0.0250244,0.0109924,
914,-0.00915527,0.0109985,
916,0.00366211,0.010968,
918,-0.0115967,0.0110046,
920,-0.0128174,0.010907,
922,0.00183105,0.0106445,
924,-0.0140381,0.0105408,
926,-0.0158691,0.0106384,
928,-0.0158691,0.0105591,
930,-0.0244141,0.0107788,
932,-0.0140381,0.0108643,
934,-0.00244141,0.0108704,
936,-0.0146484,0.010968,
938,-0.00549316,0.0108887,
940,-0.0115967,0.0109924,
942,0.00305176,0.0109558,
944,-0.00244141,0.0108643,
946,0.0164795,0.0110291,
948,-0.0134277,0.0110291,
950,-0.00793457,0.0109619,
952,0.00488281,0.0109314,
954,-0.00244141,0.0107178,
956,-0.00610352,0.0106567,
958,-0.0146484,0.0107483,
960,-0.010376,0.010675,
962,-0.0170898,0.0107483,
964,-0.00671387,0.0108093,
966,0.00610352,0.0108398,
968,0.0012207,0.0107544,
970,-0.000610352,0.01073,
972,0.00488281,0.0106995,
974,0.0299072,0.010968,
976,-0.00244141,0.0105835,
978,0.0012207,0.0105042,
980,0.00427246,0.0104492,
982,-0.0195313,0.0105713,
984,-0.00793457,0.0103943,
986,-0.0140381,0.0103333,
988,-0.0164795,0.010437,
990,-0.00854492,0.0104187,
992,-0.00366211,0.0102478,
994,-0.00610352,0.0102844,
996,-0.0317383,0.010553,
998,-0.0231934,0.010614,
1000,-0.00183105,0.0106079,
1002,0.00183105,0.0105225,
1004,-0.0152588,0.0103882,
1006,-0.0378418,0.0106323,
1008,-0.0262451,0.0108276,
1010,-0.00427246,0.0107971,
1012,0.0012207,0.0107117,
1014,-0.0134277,0.0106201,
1016,0.00488281,0.0105469,
1018,-0.00976563,0.0105408,
1020,-0.00793457,0.0106079,
1022,-0.00488281,0.0106201,
1024,-0.0170898,0.0107849,
1026,-0.00732422,0.0108521,
1028,-0.00671387,0.0107971,
1030,-0.0256348,0.0108276,
1032,-0.00976563,0.0108459,
1034,-0.00976563,0.0109375,
1036,-0.0238037,0.0111328,
1038,0,0.0110229,
1040,-0.00183105,0.0108887,
1042,0.010376,0.0108582,
1044,-0.0140381,0.0109741,
1046,0.00610352,0.0110229,
1048,0.00976563,0.0109863,
1050,0.0146484,0.0110168,
1052,0.00854492,0.0109802,
1054,-0.0115967,0.0108459,
1056,0.00427246,0.0107971,
1058,0.00244141,0.0107361,
1060,-0.012207,0.0107239,
1062,-0.0158691,0.0108276,
1064,-0.022583,0.0109863,
1066,-0.0183105,0.011084,
1068,-0.0158691,0.0111267,
1070,-0.00488281,0.0111267,
1072,-0.0152588,0.0110779,
1074,-0.0195313,0.010907,
1076,-0.0109863,0.0107971,
1078,-0.00976563,0.010675,
1080,-0.0170898,0.0107971,
1082,-0.0012207,0.0107544,
1084,-0.00427246,0.010498,
1086,-0.000610352,0.0104675,
1088,-0.010376,0.0104675,
1090,-0.0189209,0.0106323,
1092,-0.00793457,0.0106628,
1094,0.00549316,0.0105408,
1096,0.012207,0.0106384,
1098,-0.0366211,0.0109863,
1100,-0.0164795,0.0110474,
1102,-0.00488281,0.0110413,
1104,-0.00793457,0.0109009,
1106,-0.0152588,0.0110107,
1108,-0.0128174,0.0110535,
1110,-0.00244141,0.0110291,
1112,0.00305176,0.0108093,
1114,-0.020752,0.0109253,
1116,-0.0109863,0.0109985,
1118,0.0134277,0.0110168,
1120,-0.000610352,0.0108948,
1122,-0.012207,0.0109985,
1124,0.00183105,0.0108765,
1126,0.0140381,0.0108582,
1128,0.00610352,0.0107605,
1130,-0.0109863,0.0106262,
1132,-0.00671387,0.010553,
1134,-0.00671387,0.0105957,
1136,0.00427246,0.0104919,
1138,-0.00671387,0.0105042,
1140,-0.0305176,0.0106934,
1142,0.00244141,0.0106873,
1144,-0.0183105,0.0108459,
1146,-0.0115967,0.0107971,
1148,-0.0183105,0.0108459,
1150,-0.00793457,0.0108459,
1152,0.0012207,0.0108093,
1154,-0.0250244,0.0110352,
1156,0.00488281,0.0110229,
1158,-0.00183105,0.0108948,
1160,0.00183105,0.0108093,
1162,-0.00671387,0.0107056,
1164,-0.010376,0.0107422,
1166,-0.00915527,0.0107727,
1168,-0.00305176,0.010791,
1170,-0.00183105,0.0108032,
1172,-0.0274658,0.0110291,
1174,-0.020752,0.0109375,
1176,-0.00244141,0.0109375,
1178,-0.0140381,0.0110657,
1180,-0.000610352,0.0110291,
1182,-0.0158691,0.0109924,
1184,0.000610352,0.0109192,
1186,-0.00366211,0.0108154,
1188,-0.00793457,0.01073,
1190,0.0286865,0.0109314,
1192,0.00549316,0.0109497,
1194,-0.0415039,0.0113037,
1196,0.0128174,0.0111145,
1198,0.00854492,0.010968,
1200,0.00610352,0.0110107,
1202,-0.00976563,0.0110901,
1204,-0.03479,0.0112854,
1206,-0.0158691,0.0110657,
1208,0.00549316,0.0108582,
1210,0.000610352,0.0108215,
1212,-0.0213623,0.0110229,
1214,-0.0201416,0.0110901,
1216,-0.00366211,0.0110779,
1218,-0.00427246,0.0110229,
1220,-0.010376,0.0110474,
1222,-0.0177002,0.0111755,
1224,0.00488281,0.0110535,
1226,-0.00732422,0.0110535,
1228,-0.00976563,0.011084,
1230,-0.00183105,0.0108459,
1232,0.0109863,0.0108582,
1234,-0.00854492,0.0108459,
1236,0.0134277,0.0107422,
1238,-0.00671387,0.0108093,
1240,-0.00183105,0.0108093,
1242,0.00732422,0.0107788,
1244,-0.0146484,0.0107849,
1246,-0.012207,0.0108459,
1248,-0.012207,0.0108704,
1250,-0.00610352,0.0107849,
1252,-0.0152588,0.0108521,
1254,-0.00976563,0.0108337,
1256,-0.0262451,0.0110535,
1258,0.00610352,0.0110901,
1260,0.00732422,0.0110413,
1262,-0.0115967,0.0109985,
1264,-0.0146484,0.0109192,
1266,0.000610352,0.0107422,
1268,-0.000610352,0.0105896,
1270,0.0012207,0.010553,
1272,0.00183105,0.0104187,
1274,0.00488281,0.0102722,
1276,-0.00854492,0.0102478,
1278,-0.0177002,0.0103271,
1280,-0.00854492,0.0102417,
1282,0.0146484,0.010376,
1284,-0.0170898,0.0105042,
1286,-0.0238037,0.0107361,
1288,-0.0299072,0.0109314,
1290,-0.00610352,0.0108032,
1292,0.012207,0.0108459,
1294,-0.00793457,0.0108704,
1296,-0.00854492,0.0108337,
1298,-0.00732422,0.0105408,
1300,0.0012207,0.0103882,
1302,-0.00366211,0.010376,
1304,-0.00671387,0.0103638,
1306,-0.00610352,0.0102722,
1308,-0.0170898,0.0103149,
1310,-0.0146484,0.010437,
1312,-0.00183105,0.0104248,
1314,-0.00549316,0.0102722,
1316,-0.00793457,0.0102417,
1318,-0.0115967,0.0102234,
1320,-0.00183105,0.0102356,
1322,-0.00488281,0.0101624,
1324,0.00366211,0.0101807,
1326,0.00183105,0.0100586,
1328,-0.00671387,0.0100647,
1330,-0.0134277,0.0100891,
1332,0.00854492,0.0101074,
1334,0.010376,0.010144,
1336,-0.0158691,0.01026,
1338,-0.0305176,0.010498,
1340,-0.00549316,0.0102478,
1342,-0.0128174,0.0103516,
1344,-0.00244141,0.0101929,
1346,-0.012207,0.010199,
1348,-0.0250244,0.0102661,
1350,-0.00854492,0.0102722,
1352,0.00793457,0.0103394,
1354,0.00427246,0.0101318,
1356,0.00793457,0.0101624,
1358,-0.0158691,0.0103027,
1360,-0.00427246,0.0103271,
1362,-0.010376,0.0103638,
1364,-0.0128174,0.0103882,
1366,0.0128174,0.0104248,
1368,-0.0128174,0.0105225,
1370,0,0.0105042,
1372,-0.0189209,0.0104187,
1374,0.00244141,0.0102356,
1376,0.0177002,0.0103882,
1378,0.010376,0.0103516,
1380,0.0128174,0.0104736,
1382,-0.0195313,0.0105103,
1384,-0.0109863,0.010614,
1386,0.00488281,0.0106262,
1388,0.00793457,0.0106262,
1390,0.012207,0.0104614,
1392,-0.00793457,0.0104858,
1394,-0.00854492,0.0101563,
1396,-0.020752,0.0102356,
1398,0.010376,0.0102539,
1400,-0.0183105,0.010376,
1402,-0.0183105,0.0104614,
1404,-0.0189209,0.0103027,
1406,-0.0183105,0.0103271,
1408,-0.0299072,0.0105713,
1410,-0.0274658,0.0108398,
1412,-0.0262451,0.0108887,
1414,-0.0189209,0.0108765,
1416,0,0.0108398,
1418,-0.012207,0.0109192,
1420,-0.0164795,0.0109802,
1422,-0.022583,0.0110291,
1424,0.00427246,0.0110229,
1426,0.0213623,0.0111633,
1428,-0.0280762,0.0113464,
1430,-0.0219727,0.0115479,
1432,0.00793457,0.0115173,
1434,0.00488281,0.0114807,
1436,-0.00915527,0.011438,
1438,-0.00854492,0.0114563,
1440,-0.0189209,0.0116272,
1442,-0.00488281,0.0116028,
1444,-0.0146484,0.0116028,
1446,0.00427246,0.0115234,
1448,-0.00244141,0.0114258,
1450,-0.00427246,0.0114075,
1452,0.00732422,0.0113281,
1454,-0.00732422,0.0113037,
1456,0,0.0110413,
1458,-0.00366211,0.0110168,
1460,-0.00793457,0.0110229,
1462,0.00427246,0.0109497,
1464,-0.0231934,0.0110352,
1466,-0.00305176,0.0110596,
1468,-0.0164795,0.0112183,
1470,0.00244141,0.0112305,
1472,-0.00488281,0.011261,
1474,-0.00915527,0.0113037,
1476,0.0146484,0.0113647,
1478,-0.00183105,0.0112061,
1480,-0.00976563,0.0112183,
1482,-0.0177002,0.0112488,
1484,-0.0115967,0.0111938,
1486,0,0.0109558,
1488,-0.0140381,0.0107971,
1490,-0.0183105,0.0109192,
1492,-0.0311279,0.0111084,
1494,-0.0115967,0.011145,
1496,0.0128174,0.0111877,
1498,0.00488281,0.0111633,
1500,-0.0189209,0.0113403,
1502,-0.00610352,0.0113647,
1504,-0.0177002,0.0114746,
1506,-0.0170898,0.0115845,
1508,-0.0128174,0.0115417,
1510,0,0.0113953,
1512,-0.0189209,0.0115662,
1514,-0.0317383,0.0118286,
1516,-0.0164795,0.0119141,
1518,-0.00549316,0.011853,
1520,0.00305176,0.0118652,
1522,0,0.0118164,
1524,-0.00671387,0.0118469,
1526,-0.000610352,0.0118347,
1528,-0.0115967,0.0118835,
1530,0.00305176,0.0117798,
1532,0.00305176,0.0117249,
1534,-0.0109863,0.011731,
1536,0.00915527,0.0116638,
1538,-0.0152588,0.0115112,
1540,-0.012207,0.0115784,
1542,0,0.0114502,
1544,-0.00366211,0.0114624,
1546,-0.00793457,0.0114197,
1548,0.000610352,0.0111755,
1550,0.00488281,0.0111389,
1552,0.00183105,0.0110779,
1554,-0.00854492,0.0111206,
1556,-0.00244141,0.0110657,
1558,0.00488281,0.0109558,
1560,-0.0134277,0.0110474,
1562,-0.00793457,0.0110229,
1564,-0.00366211,0.0109314,
1566,-0.0213623,0.0110168,
1568,-0.00366211,0.0109253,
1570,0.03479,0.0112732,
1572,-0.00366211,0.0111206,
1574,-0.032959,0.0114258,
1576,0.00732422,0.011322,
1578,0.0231934,0.0114502,
1580,0.00488281,0.0113708,
1582,0.00488281,0.0112244,
1584,-0.00732422,0.0111877,
1586,-0.022583,0.0113647,
1588,-0.00549316,0.0113403,
1590,0.0134277,0.0113525,
1592,-0.0189209,0.0114624,
1594,0.00976563,0.0114746,
1596,-0.0115967,0.0113831,
1598,-0.0244141,0.0115234,
1600,0.00183105,0.0113586,
1602,-0.00915527,0.0112671,
1604,-0.00793457,0.0111572,
1606,-0.00854492,0.0110596,
1608,-0.00976563,0.0108582,
1610,-0.00732422,0.0106567,
1612,-0.00671387,0.0104614,
1614,-0.0170898,0.0104431,
1616,-0.0146484,0.0105896,
1618,-0.0183105,0.0106506,
1620,-0.000610352,0.0104919,
1622,-0.00183105,0.0102844,
1624,-0.00366211,0.0102783,
1626,0.00732422,0.0101379,
1628,-0.00610352,0.00991821,
1630,-0.0128174,0.00982666,
1632,0.000610352,0.00975342,
1634,-0.0012207,0.0097168,
1636,0.00854492,0.00971069,
1638,-0.0109863,0.00973511,
1640,-0.0219727,0.00976563,
1642,-0.0140381,0.00985718,
1644,-0.00244141,0.00973511,
1646,-0.00244141,0.0097168,
1648,-0.00854492,0.00977783,
1650,-0.00671387,0.00980225,
1652,0.0146484,0.00987549,
1654,-0.0177002,0.00997925,
1656,0.00305176,0.0100098,
1658,0.00793457,0.0100525,
1660,0.0213623,0.0101868,
1662,0.00671387,0.0102112,
1664,-0.00549316,0.0100342,
1666,0.0109863,0.0101135,
1668,-0.00427246,0.00999146,
1670,0.00244141,0.00999146,
1672,-0.00488281,0.00999146,
1674,-0.0164795,0.0100647,
1676,-0.012207,0.0100403,
1678,-0.00732422,0.0100952,
1680,-0.0158691,0.0101563,
1682,-0.0238037,0.0102173,
1684,0.0158691,0.01026,
1686,-0.0134277,0.0103943,
1688,-0.00183105,0.0102722,
1690,-0.0012207,0.0101013,
1692,0.00305176,0.00982056,
1694,-0.0183105,0.0098877,
1696,0.00915527,0.00985107,
1698,-0.0164795,0.00996704,
1700,-0.0286865,0.0100647,
1702,-0.00305176,0.0100342,
1704,0.00671387,0.00992432,
1706,-0.010376,0.00985718,
1708,-0.0189209,0.00991821,
1710,-0.010376,0.010022,
1712,0.0317383,0.0101501,
1714,-0.00793457,0.00991211,
1716,-0.00366211,0.00978394,
1718,-0.0201416,0.00993042,
1720,0.000610352,0.00990601,
1722,-0.00915527,0.00999756,
1724,-0.010376,0.0100342,
1726,0.00671387,0.0100952,
1728,-0.0109863,0.0100891,
1730,0.000610352,0.0100647,
1732,-0.0183105,0.0102173,
1734,0.00732422,0.0101807,
1736,0.00244141,0.0101135,
1738,-0.00244141,0.00998535,
1740,0.00305176,0.0098938,
1742,-0.0238037,0.0101318,
1744,-0.0170898,0.0102661,
1746,0,0.0101868,
1748,-0.0177002,0.0103577,
1750,0.00305176,0.0103394,
1752,-0.00793457,0.0104004,
1754,-0.00915527,0.0104065,
1756,0.0115967,0.010498,
1758,-0.00488281,0.010498,
1760,0.00305176,0.0103943,
1762,-0.0012207,0.0103271,
1764,-0.00671387,0.0103577,
1766,-0.00305176,0.0101746,
1768,-0.0140381,0.0102783,
1770,-0.0262451,0.0101929,
1772,-0.0201416,0.0103577,
1774,-0.00671387,0.0100952,
1776,-0.00244141,0.0100464,
1778,-0.0238037,0.0100525,
1780,-0.0140381,0.010144,
1782,-0.0134277,0.0102295,
1784,-0.0128174,0.0102844,
1786,-0.0012207,0.0100708,
1788,0.00366211,0.0100525,
1790,0.00854492,0.0100037,
1792,-0.00488281,0.00986328,
1794,-0.0244141,0.0100098,
1796,-0.010376,0.00999756,
1798,0.010376,0.00985718,
1800,0.00183105,0.00985718,
1802,-0.0244141,0.0100098,
1804,-0.0134277,0.0100647,
1806,0.0012207,0.00999146,
1808,-0.00671387,0.00996094,
1810,-0.00671387,0.00995483,
1812,-0.00549316,0.00994263,
1814,-0.00549316,0.00982666,
1816,-0.00427246,0.0097229,
1818,0.0012207,0.009552,
1820,-0.00305176,0.00957642,
1822,-0.012207,0.00968018,
1824,-0.00671387,0.00971069,
1826,0.012207,0.00975952,
1828,-0.0146484,0.00984497,
1830,-0.00854492,0.00980225,
1832,0,0.00979614,
1834,-0.00671387,0.00985107,
1836,0.0109863,0.00987549,
1838,-0.00610352,0.00982666,
1840,-0.0256348,0.00986328,
1842,-0.0134277,0.00985718,
1844,-0.00305176,0.00986328,
1846,-0.0146484,0.00998535,
1848,-0.010376,0.0100037,
1850,-0.00854492,0.010022,
1852,-0.0274658,0.0101501,
1854,-0.00976563,0.0100708,
1856,-0.00366211,0.0100769,
1858,-0.0244141,0.0102417,
1860,-0.00183105,0.0100464,
1862,-0.00610352,0.0100403,
1864,-0.0189209,0.0101746,
1866,-0.00854492,0.0101501,
1868,-0.00732422,0.0101807,
1870,-0.00427246,0.010199,
1872,-0.0140381,0.0102905,
1874,-0.0189209,0.0103149,
1876,-0.00305176,0.0102234,
1878,0.0115967,0.0102661,
1880,-0.0146484,0.0102539,
1882,-0.010376,0.0101196,
1884,-0.00793457,0.0100403,
1886,-0.00549316,0.00996094,
1888,-0.0280762,0.0102234,
1890,0.0170898,0.0103821,
1892,-0.00366211,0.0103882,
1894,-0.0140381,0.0103455,
1896,0.0177002,0.0104309,
1898,0.0128174,0.0103943,
1900,0.00915527,0.010199,
1902,-0.0158691,0.0103271,
1904,0.00183105,0.0102783,
1906,0.0177002,0.0103516,
1908,0.00305176,0.0101929,
1910,-0.0213623,0.0103027,
1912,0.0170898,0.0101563,
1914,-0.010376,0.0101807,
1916,-0.0518799,0.0106628,
1918,0.0115967,0.0105774,
1920,-0.0012207,0.0105835,
1922,-0.012207,0.010614,
1924,-0.0305176,0.0108154,
1926,-0.0317383,0.0110657,
1928,-0.0335693,0.0112915,
1930,-0.00244141,0.0113098,
1932,-0.0189209,0.0113159,
1934,-0.0183105,0.0114258,
1936,0.00183105,0.0114197,
1938,-0.022583,0.0116211,
1940,0.00427246,0.0116333,
1942,-0.0250244,0.0116455,
1944,-0.0158691,0.0116333,
1946,0.012207,0.0117554,
1948,-0.0164795,0.0117432,
1950,-0.0164795,0.0118774,
1952,-0.00671387,0.0118652,
1954,-0.0115967,0.0118896,
1956,-0.0250244,0.0120239,
1958,0.00305176,0.0120056,
1960,0.00793457,0.0120544,
1962,-0.0170898,0.0122131,
1964,-0.0115967,0.012262,
1966,0.012207,0.0123535,
1968,-0.0115967,0.0123291,
1970,0.00183105,0.012085,
1972,-0.00488281,0.0119324,
1974,-0.0146484,0.0120117,
1976,-0.0109863,0.0120972,
1978,-0.00549316,0.0119141,
1980,-0.00793457,0.011853,
1982,-0.0219727,0.0119385,
1984,0.00488281,0.0118591,
1986,0.0158691,0.0120056,
1988,-0.00915527,0.0120605,
1990,-0.0170898,0.012146,
1992,0.0158691,0.0122559,
1994,0.0195313,0.012207,
1996,0.0231934,0.0123352,
1998,-0.0189209,0.0124207,
2000,0.0109863,0.0125122,
2002,0.000610352,0.0122742,
2004,0.00183105,0.0121582,
2006,-0.0231934,0.0123779,
2008,-0.0183105,0.0124939,
2010,-0.00488281,0.0124756,
2012,-0.0299072,0.0127197,
2014,-0.0238037,0.0129028,
2016,-0.0177002,0.0130371,
2018,-0.0244141,0.013269,
2020,0.0012207,0.0132507,
2022,0.00427246,0.0131714,
2024,0.00183105,0.0131226,
2026,-0.0177002,0.0131775,
2028,-0.00976563,0.0131287,
2030,0.0183105,0.0132263,
2032,-0.020752,0.0134338,
2034,-0.00488281,0.0134155,
2036,-0.00976563,0.0134033,
2038,-0.0244141,0.0135864,
2040,0.0109863,0.0134399,
2042,0.000610352,0.0133118,
2044,-0.0152588,0.0134338,
2046,0.0177002,0.0134644,
2048,0,0.0133606,
2050,-0.0158691,0.0134338,
2052,0.0164795,0.013324,
2054,-0.0012207,0.0132385,
2056,-0.0115967,0.0133179,
2058,-0.0213623,0.0132874,
2060,-0.00366211,0.0133057,
2062,-0.000610352,0.0132507,
2064,0.00183105,0.0130798,
2066,-0.00854492,0.0130798,
2068,-0.0238037,0.0132446,
2070,-0.0012207,0.0132141,
2072,-0.012207,0.0131958,
2074,0.010376,0.0131104,
2076,0.0012207,0.013092,
2078,-0.0213623,0.0131897,
2080,-0.00732422,0.0131165,
2082,0.00793457,0.013092,
2084,0.0140381,0.0131531,
2086,0.0244141,0.0133423,
2088,0.0134277,0.0131958,
2090,-0.00244141,0.0130493,
2092,-0.020752,0.0132202,
2094,0.010376,0.0131836,
2096,0.00244141,0.013031,
2098,-0.00549316,0.0129578,
2100,-0.0189209,0.0130554,
2102,-0.0335693,0.0132324,
2104,0.000610352,0.0132202,
2106,0.0164795,0.013208,
2108,-0.0231934,0.0134094,
2110,-0.00610352,0.0132568,
2112,-0.0177002,0.0132629,
2114,-0.00427246,0.0132019,
2116,0.0012207,0.0126953,
2118,-0.0311279,0.0128906,
2120,-0.0286865,0.0131653,
2122,-0.00854492,0.0131287,
2124,-0.00244141,0.0128479,
2126,-0.0134277,0.0126648,
2128,-0.0128174,0.0124573,
2130,0.00854492,0.0125183,
2132,-0.00976563,0.0124268,
2134,-0.00976563,0.0123413,
2136,0.0109863,0.0124329,
2138,0.00610352,0.0122681,
2140,-0.00793457,0.0123047,
2142,-0.00183105,0.0120728,
2144,-0.0128174,0.0120422,
2146,-0.00671387,0.0119873,
2148,-0.00793457,0.0119019,
2150,0.00549316,0.011792,
2152,-0.0164795,0.0118896,
2154,-0.0256348,0.01203,
2156,0.00183105,0.0117981,
2158,-0.0201416,0.011969,
2160,0.00488281,0.0119385,
2162,-0.00488281,0.0118164,
2164,-0.00671387,0.0117676,
2166,0,0.0116455,
2168,-0.00488281,0.0115784,
2170,0.012207,0.0116821,
2172,0.00488281,0.0116821,
2174,-0.00915527,0.0116272,
2176,-0.00366211,0.011554,
2178,0.00976563,0.0115967,
2180,-0.00732422,0.0115906,
2182,-0.00244141,0.0113953,
2184,-0.010376,0.0114502,
2186,-0.00854492,0.011377,
2188,0.00915527,0.011377,
2190,-0.00244141,0.0112305,
2192,-0.0268555,0.0113403,
2194,0.00549316,0.0112,
2196,0.0012207,0.0109802,
2198,-0.010376,0.0108948,
2200,-0.0115967,0.0109009,
2202,-0.00671387,0.0109619,
2204,-0.00549316,0.0109985,
2206,0.00366211,0.0108032,
2208,-0.010376,0.0107239,
2210,-0.00793457,0.0107544,
2212,-0.00793457,0.0105347,
2214,0.00610352,0.0103577,
2216,-0.00793457,0.01026,
2218,-0.0134277,0.0101501,
2220,-0.0164795,0.0103027,
2222,-0.0201416,0.0104614,
2224,-0.00793457,0.0105225,
2226,-0.000610352,0.0103516,
2228,-0.020752,0.0104614,
2230,-0.0170898,0.0104492,
2232,-0.00915527,0.0103333,
2234,-0.00610352,0.0103455,
2236,0.012207,0.0103699,
2238,-0.0244141,0.0103699,
2240,0.00549316,0.0103149,
2242,-0.0012207,0.010321,
2244,-0.00488281,0.0102173,
2246,-0.00488281,0.0100891,
2248,-0.00915527,0.0101807,
2250,0.00976563,0.0101196,
2252,0.00427246,0.00999756,
2254,0,0.00998535,
2256,-0.00244141,0.0098938,
2258,-0.0146484,0.00982666,
2260,0.0109863,0.0098999,
2262,0.00732422,0.00996704,
2264,-0.0012207,0.00996094,
2266,-0.0280762,0.0101563,
2268,0.00183105,0.00993652,
2270,-0.00549316,0.00997925,
2272,-0.00549316,0.00991211,
2274,0.00549316,0.00986328,
2276,0.0115967,0.00996704,
2278,0.0231934,0.00998535,
2280,-0.0231934,0.010144,
2282,-0.000610352,0.0100708,
2284,0.00976563,0.0100281,
2286,0.020752,0.00999146,
2288,-0.0012207,0.00986938,
2290,-0.00427246,0.0098877,
2292,-0.0408936,0.0100891,
2294,-0.012207,0.0101074,
2296,-0.00976563,0.0101807,
2298,-0.00854492,0.0102112,
2300,-0.0170898,0.0101929,
2302,-0.0164795,0.010022,
2304,-0.0256348,0.0102722,
2306,-0.0183105,0.0102905,
2308,0.00427246,0.0101013,
2310,0.0189209,0.0102295,
2312,-0.0274658,0.0103271,
2314,-0.00427246,0.0103271,
2316,0.00366211,0.0103516,
2318,-0.0146484,0.0101868,
2320,0.00793457,0.00997925,
2322,0.00610352,0.00995483,
2324,0.00671387,0.00999756,
2326,-0.0146484,0.0100098,
2328,-0.00854492,0.00996704,
2330,0.00305176,0.00991211,
2332,0.00183105,0.00983276,
2334,-0.00549316,0.00979004,
2336,-0.00366211,0.0097168,
2338,-0.00244141,0.00968018,
2340,-0.00854492,0.00968628,
2342,-0.0115967,0.00978394,
2344,0.00610352,0.0097168,
2346,0.0158691,0.00980835,
2348,0.00366211,0.00976563,
2350,0.0280762,0.00999146,
2352,-0.00488281,0.00987549,
2354,-0.0012207,0.00963135,
2356,0.0109863,0.0097229,
2358,0.00244141,0.0095459,
2360,0.010376,0.00960083,
2362,-0.0012207,0.00956421,
2364,-0.0164795,0.00966187,
2366,-0.0384521,0.0100464,
2368,-0.00793457,0.0100769,
2370,0.0219727,0.0101746,
2372,-0.012207,0.0102478,
2374,-0.0195313,0.0103516,
2376,0.00183105,0.0103333,
2378,-0.0146484,0.0103821,
2380,-0.00732422,0.0103821,
2382,0,0.0103577,
2384,-0.0134277,0.0103882,
2386,-0.0250244,0.010553,
2388,-0.0158691,0.0106201,
2390,-0.00732422,0.0106689,
2392,-0.00854492,0.0104858,
2394,-0.00610352,0.0104919,
2396,-0.00366211,0.0105164,
2398,0.0128174,0.0105408,
2400,0.0115967,0.0105408,
2402,-0.00732422,0.0105469,
2404,0.00183105,0.0105103,
2406,-0.0012207,0.0104858,
2408,-0.0250244,0.0106323,
2410,0.00427246,0.0105957,
2412,-0.000610352,0.0105225,
2414,-0.0299072,0.0107605,
2416,-0.0134277,0.0108154,
2418,-0.020752,0.0108887,
2420,0.00854492,0.0108093,
2422,-0.00549316,0.0106628,
2424,-0.010376,0.0106873,
2426,-0.0152588,0.0108337,
2428,0.012207,0.0107483,
2430,0.00183105,0.0105957,
2432,0.00671387,0.0105713,
2434,0.0128174,0.0106384,
2436,0.0146484,0.0106628,
2438,-0.00854492,0.0105042,
2440,-0.0219727,0.0106689,
2442,0.00366211,0.0106934,
2444,0.000610352,0.0106506,
2446,-0.00366211,0.0106384,
2448,-0.0213623,0.0107605,
2450,-0.0311279,0.0109741,
2452,0.00427246,0.0109741,
2454,0.0128174,0.0111023,
2456,-0.00183105,0.0110962,
2458,-0.00305176,0.0109802,
2460,-0.00915527,0.0109619,
2462,-0.00549316,0.0109436,
2464,0.00549316,0.0109863,
2466,0.00183105,0.0107239,
2468,-0.0146484,0.0108521,
2470,-0.0164795,0.0109619,
2472,0.00305176,0.0109375,
2474,0.00305176,0.0109131,
2476,-0.00427246,0.0108398,
2478,0.00854492,0.0106934,
2480,-0.00610352,0.0105225,
2482,-0.0256348,0.0107727,
2484,0.0012207,0.0106873,
2486,-0.0195313,0.010675,
2488,-0.0177002,0.0108398,
2490,-0.00671387,0.0108643,
2492,-0.00244141,0.0104797,
2494,-0.0286865,0.0106445,
2496,-0.0012207,0.0105591,
2498,0.0250244,0.0107239,
2500,-0.0189209,0.0107422,
2502,-0.0231934,0.0108093,
2504,0.0164795,0.0107178,
2506,0.0012207,0.0105469,
2508,-0.00366211,0.0105408,
2510,-0.0177002,0.0105286,
2512,-0.0183105,0.010437,
2514,-0.00976563,0.0104919,
2516,-0.0134277,0.0105896,
2518,-0.0152588,0.0105957,
2520,-0.022583,0.0107422,
2522,-0.0134277,0.0108154,
2524,-0.00793457,0.0108276,
2526,-0.0115967,0.0107971,
2528,-0.00488281,0.0107605,
2530,-0.000610352,0.0107361,
2532,-0.0115967,0.0108337,
2534,0.0305176,0.011084,
2536,-0.000610352,0.0110535,
2538,0,0.0110291,
2540,0.010376,0.0110474,
2542,-0.00793457,0.0110107,
2544,-0.012207,0.0110718,
2546,0.00183105,0.0109314,
2548,-0.0134277,0.0110291,
2550,-0.00976563,0.0108459,
2552,-0.0244141,0.0110413,
2554,-0.0170898,0.0112,
2556,-0.00610352,0.0111511,
2558,-0.00610352,0.0111877,
2560,-0.00610352,0.011145,
2562,0.00183105,0.0111511,
2564,-0.00976563,0.011084,
2566,0.012207,0.0108215,
2568,0.00488281,0.010791,
2570,0.0012207,0.0105835,
2572,-0.020752,0.0106689,
2574,-0.022583,0.0106995,
2576,-0.0189209,0.0108704,
2578,-0.00671387,0.010791,
2580,-0.00915527,0.0108093,
2582,-0.0164795,0.0109741,
2584,-0.00915527,0.0109314,
2586,-0.0109863,0.010791,
2588,-0.00305176,0.0106628,
2590,0.00427246,0.0106323,
2592,-0.0140381,0.0106873,
2594,0.00976563,0.0107239,
2596,0.00183105,0.0107056,
2598,-0.0183105,0.0107605,
2600,-0.0012207,0.0106567,
2602,-0.00854492,0.0106689,
2604,-0.00793457,0.01073,
2606,0.00549316,0.0107727,
2608,-0.0286865,0.0108093,
2610,0.0189209,0.0109558,
2612,-0.0201416,0.0111511,
2614,-0.020752,0.0110596,
2616,-0.0164795,0.0110901,
2618,-0.00183105,0.0109009,
2620,-0.00976563,0.0109131,
2622,-0.0219727,0.0110779,
2624,-0.0164795,0.0111389,
2626,0.00854492,0.0110718,
2628,0.00854492,0.0110352,
2630,-0.00976563,0.0111145,
2632,-0.012207,0.0111694,
2634,0.00732422,0.0111145,
2636,0.0170898,0.0111389,
2638,-0.0292969,0.0113464,
2640,0.00427246,0.0111694,
2642,-0.00305176,0.0111633,
2644,-0.00427246,0.0112,
2646,-0.010376,0.0112671,
2648,-0.0201416,0.0112549,
2650,-0.00854492,0.0110291,
2652,-0.0115967,0.0111023,
2654,0.00549316,0.0110291,
2656,-0.0128174,0.0111389,
2658,-0.00732422,0.0111816,
2660,0.0183105,0.0112732,
2662,-0.0274658,0.0114929,
2664,0.00976563,0.0115356,
2666,0.0164795,0.0116821,
2668,-0.0286865,0.0118225,
2670,-0.0115967,0.0117737,
2672,-0.0146484,0.0118896,
2674,-0.012207,0.0119812,
2676,0.00366211,0.0119751,
2678,-0.0109863,0.0119995,
2680,-0.010376,0.0120422,
2682,0.00305176,0.0118164,
2684,-0.0128174,0.0119324,
2686,0.00915527,0.0118286,
2688,0.0115967,0.0117676,
2690,-0.00305176,0.011731,
2692,-0.0268555,0.0119751,
2694,-0.0012207,0.0117004,
2696,-0.010376,0.011792,
2698,-0.0189209,0.011731,
2700,-0.0109863,0.0116516,
2702,-0.00854492,0.0115051,
2704,0.0146484,0.0114868,
2706,-0.0177002,0.0116516,
2708,-0.0170898,0.0117859,
2710,0.0152588,0.0117615,
2712,0.0189209,0.0117676,
2714,-0.0109863,0.0117798,
2716,0.000610352,0.0116516,
2718,-0.0164795,0.0116638,
2720,-0.012207,0.0115601,
2722,-0.0140381,0.0115662,
2724,-0.0152588,0.0116394,
2726,-0.0201416,0.0117249,
2728,-0.00976563,0.0117737,
2730,-0.012207,0.0118896,
2732,0.00244141,0.0117981,
2734,-0.0012207,0.0115051,
2736,-0.00915527,0.0115906,
2738,-0.0195313,0.0117859,
2740,0.0109863,0.011792,
2742,0.010376,0.0118164,
2744,-0.0238037,0.0119324,
2746,-0.0183105,0.0120972,
2748,0.0012207,0.0119751,
2750,0.000610352,0.0118835,
2752,-0.00793457,0.0117188,
2754,0.0109863,0.0116577,
2756,-0.0115967,0.0117126,
2758,-0.00610352,0.0117126,
2760,0.0195313,0.0118469,
2762,-0.0012207,0.0118408,
2764,0.00366211,0.0117798,
2766,-0.012207,0.0117798,
2768,0.00366211,0.0117676,
2770,0.0140381,0.0118958,
2772,0.010376,0.011792,
2774,-0.0250244,0.0118164,
2776,-0.0146484,0.0117737,
2778,0.00854492,0.011792,
2780,-0.0012207,0.0117126,
2782,-0.00976563,0.0116455,
2784,-0.022583,0.0117798,
2786,0.0115967,0.0117859,
2788,-0.00671387,0.0118225,
2790,-0.0152588,0.0119324,
2792,-0.0274658,0.0120667,
2794,0.0128174,0.0120972,
2796,0.000610352,0.012085,
2798,-0.0213623,0.0121155,
2800,-0.0128174,0.0122314,
2802,-0.0170898,0.0123169,
2804,-0.0109863,0.0123474,
2806,0.00305176,0.012323,
2808,-0.010376,0.0121399,
2810,-0.00610352,0.0120117,
2812,-0.010376,0.0119141,
2814,-0.00854492,0.011792,
2816,0.00244141,0.0116516,
2818,-0.00488281,0.0116821,
2820,0.0189209,0.0117737,
2822,0.00854492,0.0116394,
2824,-0.0164795,0.0116394,
2826,0.000610352,0.0115601,
2828,0.0158691,0.0116333,
2830,-0.00732422,0.0116089,
2832,-0.0146484,0.0116333,
2834,-0.00732422,0.0116333,
2836,0.0134277,0.0115967,
2838,-0.00915527,0.0113953,
2840,-0.0256348,0.0116089,
2842,-0.00793457,0.0116577,
2844,0.00488281,0.0116638,
2846,-0.00610352,0.0116211,
2848,0.00305176,0.0114502,
2850,-0.0109863,0.0114746,
2852,0.00793457,0.011438,
2854,-0.00549316,0.011438,
2856,-0.00976563,0.0114075,
2858,0.0012207,0.0113464,
2860,0.0170898,0.0113342,
2862,-0.0195313,0.0112549,
2864,-0.020752,0.0113647,
2866,-0.0128174,0.0113281,
2868,-0.0140381,0.0111816,
2870,0.00427246,0.0111084,
2872,-0.0250244,0.0112122,
2874,-0.00915527,0.0111816,
2876,0.00610352,0.0112061,
2878,-0.0140381,0.0112366,
2880,0.00549316,0.0111877,
2882,0.0109863,0.0112671,
2884,-0.00488281,0.0111877,
2886,0.000610352,0.0111023,
2888,-0.0146484,0.0111328,
2890,-0.0115967,0.0112183,
2892,-0.00671387,0.0110168,
2894,0.00427246,0.0110474,
2896,0.0170898,0.0111145,
2898,-0.03479,0.0112732,
2900,-0.00366211,0.0112,
2902,0.012207,0.0112366,
2904,-0.0170898,0.011261,
2906,-0.000610352,0.0110901,
2908,-0.0195313,0.0111145,
2910,0.0170898,0.0111328,
2912,-0.0378418,0.011322,
2914,-0.0244141,0.0114563,
2916,0.0189209,0.0116394,
2918,0.0146484,0.0116211,
2920,-0.0219727,0.0117188,
2922,0.00366211,0.011615,
2924,0.0195313,0.0116577,
2926,0.0012207,0.0114685,
2928,-0.0012207,0.0113831,
2930,0.0128174,0.0113892,
2932,0.000610352,0.0113708,
2934,-0.0305176,0.0116638,
2936,-0.0012207,0.0115845,
2938,-0.00244141,0.0114136,
2940,-0.0109863,0.0114136,
2942,-0.0146484,0.0114563,
2944,0.00671387,0.0112854,
2946,-0.00366211,0.0111389,
2948,-0.020752,0.0113342,
2950,-0.0012207,0.0113403,
2952,-0.00488281,0.0113098,
2954,-0.0152588,0.0113525,
2956,0.0115967,0.0113525,
2958,-0.012207,0.0114136,
2960,-0.0115967,0.0113342,
2962,-0.0012207,0.0113342,
2964,0.00366211,0.0113342,
2966,0.0146484,0.0113586,
2968,-0.0183105,0.0115051,
2970,-0.00732422,0.011438,
2972,-0.012207,0.0114563,
2974,-0.00610352,0.0112671,
2976,0.00793457,0.0112,
2978,-0.0341797,0.0114563,
2980,-0.0115967,0.0115601,
2982,-0.0115967,0.0115784,
2984,-0.00549316,0.0114075,
2986,0.00427246,0.0113342,
2988,-0.00671387,0.0113342,
2990,0.00366211,0.0112183,
2992,-0.00793457,0.0110229,
2994,0.00366211,0.0109314,
2996,-0.0128174,0.0110535,
2998,-0.00488281,0.0108887,
3000,0.0158691,0.0109192,
3002,-0.00854492,0.0108337,
3004,0.0152588,0.0108765,
3006,-0.00671387,0.0109131,
3008,-0.0146484,0.0109558,
3010,0.0256348,0.0111511,
3012,-0.00488281,0.0110962,
3014,-0.010376,0.0111145,
3016,0.00305176,0.0111206,
3018,0.00915527,0.0111633,
3020,-0.00366211,0.0110107,
3022,-0.0402832,0.0113281,
3024,0.0012207,0.0111755,
3026,0.00244141,0.0111938,
3028,-0.0146484,0.0111816,
3030,-0.00549316,0.0111633,
3032,-0.0170898,0.0111877,
3034,-0.00793457,0.0111938,
3036,0.0140381,0.0112,
3038,0.00183105,0.0111267,
3040,-0.0164795,0.0110352,
3042,-0.00610352,0.0110168,
3044,-0.012207,0.0110901,
3046,-0.00915527,0.0111206,
3048,0.00427246,0.0111328,
3050,-0.0360107,0.0113831,
3052,-0.0262451,0.0115662,
3054,-0.010376,0.011615,
3056,-0.0109863,0.0116272,
3058,-0.00366211,0.0116516,
3060,-0.0152588,0.0116333,
3062,0.00427246,0.0114807,
3064,-0.00915527,0.0113647,
3066,-0.0158691,0.0113953,
3068,-0.00671387,0.011322,
3070,0.0115967,0.0113953,
3072,-0.010376,0.0112488,
3074,-0.0195313,0.0113525,
3076,-0.0195313,0.0114868,
3078,-0.0012207,0.0113586,
3080,0.0164795,0.0114685,
3082,-0.00244141,0.0113831,
3084,-0.00671387,0.0114014,
3086,-0.00793457,0.0114746,
3088,0.012207,0.0114502,
3090,0.0128174,0.0114624,
3092,-0.00732422,0.0114685,
3094,0.00732422,0.011499,
3096,-0.0012207,0.0113403,
3098,-0.00915527,0.011084,
3100,-0.0109863,0.0111572,
3102,-0.0158691,0.0111938,
3104,0.0231934,0.0112549,
3106,-0.0140381,0.0113892,
3108,-0.0158691,0.0113525,
3110,0.0201416,0.0113831,
3112,-0.00366211,0.0110413,
3114,-0.0372314,0.0111694,
3116,-0.00610352,0.0110413,
3118,-0.00976563,0.0109924,
3120,-0.00488281,0.0108215,
3122,-0.0366211,0.0111511,
3124,-0.0177002,0.0111328,
3126,-0.012207,0.0112427,
3128,-0.0250244,0.0114807,
3130,-0.0115967,0.0114685,
3132,0.00305176,0.0114929,
3134,0.000610352,0.0111938,
3136,-0.0219727,0.0114014,
3138,0.0012207,0.0113892,
3140,-0.00305176,0.0113098,
3142,-0.0012207,0.0111755,
3144,0.000610352,0.0111145,
3146,0.0012207,0.0110901,
3148,0,0.0108826,
3150,0.00915527,0.0109619,
3152,0.00183105,0.0109314,
3154,0.022583,0.0110046,
3156,-0.00793457,0.010968,
3158,-0.00610352,0.010907,
3160,-0.00610352,0.0108521,
3162,-0.00976563,0.0109375,
3164,-0.0115967,0.0110168,
3166,-0.0012207,0.0108826,
3168,-0.00915527,0.010791,
3170,-0.0238037,0.0109558,
3172,-0.00671387,0.0109009,
3174,0.0109863,0.0109497,
3176,0.010376,0.0109741,
3178,-0.00244141,0.0106567,
3180,-0.0158691,0.0106995,
3182,-0.0152588,0.0107361,
3184,-0.00915527,0.0107727,
3186,0.00671387,0.0107971,
3188,-0.0201416,0.0109314,
3190,-0.0189209,0.011084,
3192,-0.0158691,0.0111633,
3194,0.00671387,0.0111938,
3196,-0.00549316,0.0111206,
3198,0.00671387,0.0111389,
3200,-0.012207,0.0111023,
3202,-0.0146484,0.0111633,
3204,0.00976563,0.0111084,
3206,-0.00854492,0.0111267,
3208,-0.03479,0.0113281,
3210,-0.000610352,0.0110779,
3212,0.012207,0.0111511,
3214,-0.0372314,0.0114197,
3216,0.00488281,0.011438,
3218,0.0158691,0.0115051,
3220,-0.0012207,0.0114807,
3222,0.00671387,0.011145,
3224,-0.0158691,0.0112915,
3226,-0.00549316,0.011322,
3228,-0.00793457,0.0112549,
3230,-0.00610352,0.011261,
3232,-0.0231934,0.011322,
3234,-0.00244141,0.0112671,
3236,-0.00976563,0.0112244,
3238,-0.0109863,0.0113159,
3240,-0.0164795,0.0113159,
3242,0.0195313,0.0114502,
3244,0.0299072,0.0116272,
3246,-0.012207,0.0116577,
3248,-0.0115967,0.011731,
3250,0.00732422,0.0114441,
3252,-0.00549316,0.0112366,
3254,-0.0146484,0.0112793,
3256,-0.00427246,0.0112122,
3258,-0.0256348,0.0114319,
3260,-0.0195313,0.0114746,
3262,-0.012207,0.011554,
3264,0,0.0114624,
3266,-0.0152588,0.0114563,
3268,-0.00549316,0.0114441,
3270,-0.012207,0.0114502,
3272,0.0140381,0.0114868,
3274,-0.00793457,0.0113708,
3276,-0.00854492,0.011261,
3278,-0.00976563,0.0113464,
3280,-0.000610352,0.0111877,
3282,-0.0109863,0.0112732,
3284,-0.00610352,0.0112671,
3286,-0.0134277,0.011322,
3288,-0.0189209,0.0113892,
3290,0.00854492,0.0113464,
3292,0.0152588,0.0114258,
3294,-0.0311279,0.0116638,
3296,-0.020752,0.0118591,
3298,0.00793457,0.0118469,
3300,0.00793457,0.0118164,
3302,-0.0262451,0.0119202,
3304,-0.0128174,0.0118164,
3306,0,0.011676,
3308,-0.0012207,0.0115295,
3310,0.00793457,0.0114075,
3312,0.0183105,0.011554,
3314,-0.0146484,0.0113281,
3316,-0.0170898,0.011438,
3318,0.00854492,0.0114258,
3320,0.0115967,0.0114929,
3322,-0.0183105,0.0113098,
3324,0.0012207,0.011145,
3326,-0.0183105,0.0112061,
3328,-0.012207,0.0110779,
3330,0.00488281,0.0110107,
3332,-0.0012207,0.0109924,
3334,-0.00915527,0.0110779,
3336,0.000610352,0.0108643,
3338,0.00427246,0.0108948,
3340,-0.0250244,0.0111145,
3342,-0.00244141,0.0111267,
3344,-0.022583,0.0113464,
3346,-0.012207,0.0114563,
3348,-0.00671387,0.0115234,
3350,0.000610352,0.011438,
3352,-0.00366211,0.0114563,
3354,0.00915527,0.011322,
3356,0.0134277,0.011377,
3358,-0.032959,0.0116455,
3360,0.00915527,0.011676,
3362,0.0134277,0.0117126,
3364,-0.00366211,0.0116333,
3366,-0.0195313,0.0118164,
3368,-0.0341797,0.0120667,
3370,0.00305176,0.0118591,
3372,-0.00976563,0.0118896,
3374,-0.0219727,0.0119995,
3376,-0.00915527,0.0119873,
3378,0.00427246,0.0120056,
3380,-0.00732422,0.0119202,
3382,-0.00732422,0.0118408,
3384,-0.00549316,0.0118042,
3386,0.00732422,0.0118103,
3388,-0.0140381,0.0117493,
3390,-0.000610352,0.0115662,
3392,-0.0115967,0.0115234,
3394,-0.0109863,0.0115662,
3396,-0.00732422,0.0115845,
3398,-0.0170898,0.0116882,
3400,-0.012207,0.0116882,
3402,-0.0109863,0.0116516,
3404,-0.00915527,0.0116455,
3406,0.012207,0.0116821,
3408,-0.00305176,0.0113647,
3410,0.00610352,0.0114197,
3412,0,0.0112976,
3414,-0.00183105,0.0109436,
3416,0.00244141,0.0109192,
3418,-0.0164795,0.0109253,
3420,-0.00671387,0.0109802,
3422,-0.0146484,0.0110596,
3424,-0.012207,0.0110229,
3426,-0.0152588,0.0111206,
3428,-0.0109863,0.0111511,
3430,0.0372314,0.0114624,
3432,-0.00366211,0.0112671,
3434,-0.0134277,0.011377,
3436,0.0115967,0.0113953,
3438,0.0177002,0.0114624,
3440,-0.0231934,0.0115295,
3442,0.0170898,0.0115051,
3444,0,0.0112061,
3446,-0.0158691,0.0112427,
3448,-0.0146484,0.0112732,
3450,-0.00671387,0.0112671,
3452,-0.00305176,0.0112427,
3454,-0.00366211,0.0111328,
3456,-0.00671387,0.0111572,
3458,-0.010376,0.0110046,
3460,-0.00366211,0.0108459,
3462,-0.0109863,0.0108337,
3464,-0.00915527,0.0109253,
3466,-0.00915527,0.0108643,
3468,-0.0183105,0.0109924,
3470,0.000610352,0.0108765,
3472,-0.0231934,0.010968,
3474,0,0.0108887,
3476,-0.0170898,0.0109741,
3478,-0.0177002,0.0110535,
3480,-0.00183105,0.0110657,
3482,0.00488281,0.0110046,
3484,-0.00732422,0.0110168,
3486,-0.0152588,0.0110352,
3488,-0.0012207,0.0108582,
3490,0.00671387,0.0108398,
3492,0.00427246,0.01073,
3494,0.00305176,0.0104492,
3496,0.010376,0.0103455,
3498,-0.010376,0.0103699,
3500,0.012207,0.0104126,
3502,0.00366211,0.0101868,
3504,-0.00976563,0.0101563,
3506,-0.0109863,0.0102661,
3508,0.00366211,0.0102905,
3510,0.00366211,0.0102478,
3512,-0.020752,0.0102722,
3514,-0.00793457,0.0102051,
3516,-0.0140381,0.0101746,
3518,0.00793457,0.0101685,
3520,-0.022583,0.0102783,
3522,-0.0128174,0.0102234,
3524,0.0012207,0.0102234,
3526,-0.00305176,0.0100708,
3528,-0.0140381,0.0100891,
3530,0.00610352,0.0101013,
3532,-0.0115967,0.0102051,
3534,0.00427246,0.0101563,
3536,0.00610352,0.0102112,
3538,0.00915527,0.01026,
3540,0.00854492,0.0100952,
3542,0.0115967,0.0101868,
3544,0.00183105,0.00997925,
3546,-0.0134277,0.00999146,
3548,0.00854492,0.0100098,
3550,-0.00854492,0.0100891,
3552,-0.00366211,0.0100891,
3554,0.0244141,0.0102417,
3556,-0.012207,0.0102295,
3558,-0.00854492,0.00998535,
3560,0.00976563,0.00999146,
3562,0,0.00985718,
3564,0.00976563,0.00991821,
3566,-0.00488281,0.00977173,
3568,-0.0244141,0.00967407,
3570,0.00610352,0.00970459,
3572,-0.012207,0.009729,
3574,-0.00793457,0.00958862,
3576,-0.0189209,0.00968628,
3578,-0.0140381,0.00978394,
3580,-0.0164795,0.00987549,
3582,-0.0134277,0.00993652,
3584,0.00732422,0.00995483,
3586,-0.00732422,0.00995483,
3588,-0.0201416,0.0100159,
3590,-0.0244141,0.0102539,
3592,0.00244141,0.0101624,
3594,0.0012207,0.0100647,
3596,-0.0183105,0.0101746,
3598,-0.00793457,0.010083,
3600,0.00305176,0.00999146,
3602,-0.0213623,0.0100952,
3604,0.0012207,0.0100159,
3606,0.0268555,0.0101624,
3608,0.00244141,0.0101563,
3610,-0.0152588,0.0102478,
3612,-0.0134277,0.0103821,
3614,0.0170898,0.0105347,
3616,0.0109863,0.0106201,
3618,-0.0189209,0.0106445,
3620,-0.00854492,0.0106628,
3622,-0.00793457,0.0105957,
3624,0.00915527,0.0105652,
3626,-0.0256348,0.0106689,
3628,0.00366211,0.0105957,
3630,0.00305176,0.0102539,
3632,0.00244141,0.0102417,
3634,0.00305176,0.0101379,
3636,-0.00549316,0.0100769,
3638,0.00549316,0.00995483,
3640,0.0012207,0.00973511,
3642,0.00366211,0.00960083,
3644,-0.0115967,0.0097168,
3646,-0.00488281,0.00960693,
3648,0.0012207,0.00947266,
3650,0.0012207,0.00941772,
3652,-0.0183105,0.00957031,
3654,-0.0109863,0.00964355,
3656,-0.0213623,0.00979004,
3658,-0.0244141,0.00993042,
3660,0.00427246,0.00993652,
3662,-0.00305176,0.00985718,
3664,-0.0115967,0.00988159,
3666,-0.0164795,0.00995483,
3668,-0.00915527,0.00986328,
3670,-0.00305176,0.0098877,
3672,0.00793457,0.00973511,
3674,-0.00183105,0.00975342,
3676,-0.00305176,0.00961304,
3678,0.00854492,0.00952148,
3680,-0.00183105,0.00952148,
3682,-0.000610352,0.00947876,
3684,0.00244141,0.00942993,
3686,0.00671387,0.00934448,
3688,-0.0115967,0.00944824,
3690,0.000610352,0.00938721,
3692,-0.00305176,0.009375,
3694,-0.00305176,0.009375,
3696,-0.00915527,0.00936279,
3698,-0.00549316,0.00931396,
3700,-0.00549316,0.00924683,
3702,-0.00244141,0.00923462,
3704,-0.012207,0.00925903,
3706,-0.00793457,0.00922852,
3708,-0.0012207,0.0092041,
3710,-0.0109863,0.00927734,
3712,-0.0311279,0.0093811,
3714,0,0.00930176,
3716,0.0134277,0.00929565,
3718,-0.020752,0.00942383,
3720,-0.0164795,0.00936279,
3722,0.0201416,0.00943604,
3724,-0.00610352,0.00948486,
3726,0.0177002,0.00963135,
3728,-0.010376,0.00959473,
3730,-0.00854492,0.00961914,
3732,0.0158691,0.00966187,
3734,0.0134277,0.00975342,
3736,-0.00549316,0.00974731,
3738,-0.00244141,0.00968018,
3740,-0.0128174,0.0097229,
3742,0.012207,0.009729,
3744,0.00671387,0.00977783,
3746,-0.00671387,0.00971069,
3748,-0.0152588,0.00977783,
3750,-0.00854492,0.00977783,
3752,-0.000610352,0.00974731,
3754,0,0.00950317,
3756,-0.0164795,0.0095459,
3758,-0.010376,0.00956421,
3760,-0.00793457,0.0095459,
3762,-0.00671387,0.00961304,
3764,-0.000610352,0.00952148,
3766,-0.0128174,0.00960083,
3768,-0.00244141,0.0093811,
3770,0.00549316,0.009375,
3772,-0.0128174,0.0093811,
3774,-0.00610352,0.00936279,
3776,-0.000610352,0.00917969,
3778,0.010376,0.00914307,
3780,0.0146484,0.00912476,
3782,-0.0201416,0.00919189,
3784,0.00549316,0.00917358,
3786,0.0213623,0.00931396,
3788,-0.0189209,0.00930176,
3790,0.00549316,0.00911255,
3792,-0.00732422,0.00916138,
3794,-0.0189209,0.00933838,
3796,-0.0109863,0.00926514,
3798,-0.00915527,0.00927734,
3800,-0.00244141,0.00927124,
3802,-0.0134277,0.00919189,
3804,-0.0158691,0.00933838,
3806,0.00488281,0.00911865,
3808,0,0.00909424,
3810,0.0012207,0.00895386,
3812,-0.00610352,0.00888062,
3814,-0.00976563,0.00880737,
3816,0.000610352,0.00870361,
3818,0.00671387,0.00858154,
3820,-0.00610352,0.00855713,
3822,-0.00915527,0.00856934,
3824,0.0115967,0.00859375,
3826,-0.0164795,0.0085022,
3828,0.00793457,0.00854492,
3830,0.00549316,0.00856934,
3832,0.00305176,0.00857544,
3834,-0.022583,0.00877075,
3836,-0.00671387,0.00878296,
3838,0.00671387,0.00879517,
3840,-0.00854492,0.00886841,
3842,-0.0238037,0.00906982,
3844,0.0012207,0.00896606,
3846,0.012207,0.00903931,
3848,-0.0012207,0.00903931,
3850,-0.00732422,0.00910034,
3852,-0.00183105,0.00893555,
3854,0.0146484,0.00897217,
3856,0.00488281,0.00880737,
3858,-0.012207,0.0086853,
3860,-0.0146484,0.00878906,
3862,-0.00244141,0.00878296,
3864,0.0109863,0.00877686,
3866,-0.0311279,0.00892334,
3868,-0.0134277,0.00896606,
3870,0.00488281,0.00898438,
3872,0.0012207,0.00891724,
3874,-0.0109863,0.00900879,
3876,-0.0262451,0.00924072,
3878,-0.0183105,0.00933838,
3880,-0.00976563,0.00941772,
3882,-0.00366211,0.00944824,
3884,0.00915527,0.00951538,
3886,-0.0360107,0.00980835,
3888,-0.00366211,0.009729,
3890,-0.00793457,0.00980225,
3892,0.00488281,0.00982056,
3894,0.010376,0.0098938,
3896,-0.00915527,0.0098938,
3898,0.0152588,0.00999146,
3900,0,0.00993652,
3902,-0.0170898,0.010083,
3904,0.00366211,0.00999756,
3906,-0.00732422,0.00999146,
3908,-0.00732422,0.0100525,
3910,-0.00732422,0.0100159,
3912,-0.0134277,0.00983887,
3914,-0.00244141,0.00986328,
3916,-0.00488281,0.00977783,
3918,-0.012207,0.00969238,
3920,-0.00366211,0.00956421,
3922,-0.00488281,0.00941162,
3924,-0.00732422,0.00942383,
3926,-0.0134277,0.0093811,
3928,-0.010376,0.0093811,
3930,-0.022583,0.00952148,
3932,0.00305176,0.00939331,
3934,0.0140381,0.00939941,
3936,0.0012207,0.00935669,
3938,0.03479,0.00968018,
3940,0.00183105,0.00957031,
3942,0.00305176,0.00947876,
3944,0.0280762,0.00969238,
3946,-0.0195313,0.00982056,
3948,-0.00427246,0.00971069,
3950,-0.0238037,0.00986328,
3952,-0.0140381,0.00999756,
3954,-0.0213623,0.0102112,
3956,-0.00854492,0.0101318,
3958,0.00366211,0.0100647,
3960,-0.00854492,0.0100708,
3962,0.0183105,0.0101868,
3964,0.0537109,0.0107178,
3966,0.0543213,0.0111328,
3968,0.0128174,0.0112366,
3970,0.0366211,0.0115479,
3972,0.00854492,0.0115051,
3974,0.0335693,0.0117798,
3976,-0.0140381,0.0119141,
3978,-0.0183105,0.0119934,
3980,-0.0134277,0.0119812,
3982,-0.0427246,0.012207,
3984,-0.043335,0.0125854,
3986,-0.0012207,0.012384,
3988,-0.00427246,0.0122375,
3990,-0.0323486,0.0125061,
3992,0.00915527,0.0125244,
3994,0.0268555,0.0126038,
3996,0.0286865,0.0127808,
3998,0.0286865,0.0129761,
4000,0.0317383,0.013269,
4002,0.0787354,0.0139221,
4004,0.0671387,0.0144348,
4006,0.0585938,0.0149719,
4008,0.0726318,0.0156982,
4010,-0.0152588,0.0158386,
4012,-0.000610352,0.0157837,
4014,0.0592041,0.0162781,
4016,-0.00183105,0.0162903,
4018,0,0.0162231,
4020,0.00183105,0.0161804,
4022,0.0354004,0.0164429,
4024,0.0854492,0.0171814,
4026,0.0579834,0.0175964,
4028,0.0701904,0.018219,
4030,0.161743,0.0197815,
4032,0.0909424,0.0206604,
4034,0.0598145,0.0210327,
4036,0.0811768,0.0217773,
4038,0.160522,0.0233154,
4040,0.168457,0.0249146,
4042,0.0720215,0.0253967,
4044,0.13916,0.0267761,
4046,0.233154,0.0289856,
4048,0.228882,0.0312622,
4050,0.119019,0.0323792,
4052,0.00915527,0.0324524,
4054,0.043335,0.0327393,
4056,0,0.0326904,
4058,-0.130615,0.0338745,
4060,-0.209961,0.0358276,
4062,-0.148315,0.0372864,
4064,-0.317993,0.0403564,
4066,-0.212402,0.0421692,
4068,-0.118408,0.043219,
4070,-0.172729,0.0448975,
4072,-0.0915527,0.0458008,
4074,-0.19104,0.0476013,
4076,-0.090332,0.0482422,
4078,-0.010376,0.0481628,
4080,0.00976563,0.0481628,
4082,-0.0476074,0.0486023,
4084,-0.00732422,0.048584,
4086,0.0201416,0.0484253,
4088,-0.0164795,0.0485535,
4090,-0.143433,0.0499084,
4092,0.122681,0.0510864,
4094,0.0646973,0.0516296,
4096,-0.0622559,0.0521606,
4098,-0.109863,0.0531067,
4100,-0.0164795,0.0532715,
4102,0.144043,0.054541,
4104,0.0848389,0.0553528,
4106,0.0476074,0.0557556,
4108,0.175171,0.0574341,
4110,0.192261,0.0592834,
4112,0.0793457,0.0599426,
4114,0.172729,0.0616455,
4116,-0.0939941,0.0625366,
4118,0.03479,0.0627625,
4120,-0.0476074,0.0632019,
4122,-0.122681,0.0643799,
4124,-0.146484,0.0657715,
4126,-0.0396729,0.0660339,
4128,-0.0958252,0.0668884,
4130,-0.119019,0.0678528,
4132,-0.107422,0.0688965,
4134,0.0256348,0.0690125,
4136,0.164185,0.0706421,
4138,0.130615,0.0716003,
4140,-0.0872803,0.0724548,
4142,-0.140381,0.0738281,
4144,-0.0640869,0.0741882,
4146,0.0177002,0.0741699,
4148,0.0317383,0.0744446,
4150,-0.0732422,0.074939,
4152,-0.128784,0.0760864,
4154,-0.0854492,0.0767273,
4156,-0.125122,0.0778931,
4158,-0.078125,0.0786377,
4160,0.0170898,0.0787231,
4162,-0.0384521,0.0789246,
4164,-0.115356,0.079541,
4166,-0.0170898,0.0791687,
4168,-0.145264,0.0804932,
4170,-0.0115967,0.0802429,
4172,0.0311279,0.0804688,
4174,-0.0421143,0.0805542,
4176,0.0860596,0.0812744,
4178,0.0463867,0.0815552,
4180,0.00244141,0.0814453,
4182,0.0317383,0.0813354,
4184,0.0756836,0.0816589,
4186,-0.101318,0.0826599,
4188,-0.0268555,0.0828857,
4190,0.0964355,0.0835266,
4192,-0.00732422,0.0835083,
4194,-0.112305,0.0843628,
4196,-0.263062,0.0867065,
4198,-0.012207,0.0865417,
4200,0.0238037,0.0864624,
4202,0.0286865,0.0859619,
4204,-0.220337,0.0874939,
4206,-0.115356,0.0880615,
4208,-0.0164795,0.0875,
4210,-0.0372314,0.0877197,
4212,0.0549316,0.0882629,
4214,0.000610352,0.087677,
4216,-0.0286865,0.0879456,
4218,0.0128174,0.0880737,
4220,0.0653076,0.0887085,
4222,0.0384521,0.088739,
4224,0.114746,0.089032,
4226,0.0183105,0.0886353,
4228,-0.13855,0.0893188,
4230,0.0012207,0.0877136,
4232,-0.0482178,0.0872864,
4234,-0.0976563,0.0876648,
4236,-0.0238037,0.0870911,
4238,-0.10498,0.0865356,
4240,-0.0378418,0.0852295,
4242,-0.00183105,0.0845276,
4244,-0.0622559,0.0837585,
4246,0.0793457,0.0822205,
4248,-0.00244141,0.0799561,
4250,0.0109863,0.0788757,
4252,0.125732,0.0800415,
4254,0.000610352,0.0796143,
4256,-0.0323486,0.0799377,
4258,0.0714111,0.0793457,
4260,-0.108032,0.0783264,
4262,-0.0994873,0.0778381,
4264,-0.012207,0.0747803,
4266,-0.00305176,0.0726868,
4268,-0.0140381,0.0716431,
4270,-0.0646973,0.0705627,
4272,-0.0592041,0.0702393,
4274,0.148926,0.0698181,
4276,0.137939,0.0702942,
4278,0.0476074,0.0706665,
4280,0.0305176,0.070874,
4282,0.0390625,0.0707886,
4284,-0.0634766,0.0713501,
4286,0.0726318,0.071875,
4288,0.0164795,0.071875,
4290,-0.187988,0.0723206,
4292,-0.0921631,0.0720154,
4294,-0.0109863,0.0714783,
4296,0.0268555,0.0711243,
4298,-0.131226,0.0713379,
4300,-0.0695801,0.0718689,
4302,0.055542,0.0709839,
4304,-0.043335,0.0705688,
4306,-0.0665283,0.0707581,
4308,-0.0628662,0.069635,
4310,-0.0408936,0.0681213,
4312,-0.0378418,0.0677063,
4314,-0.00915527,0.0660706,
4316,-0.00854492,0.0652161,
4318,-0.0109863,0.064978,
4320,-0.0628662,0.0651306,
4322,0.0317383,0.0642212,
4324,0.135498,0.0641113,
4326,0.0567627,0.0642822,
4328,-0.00915527,0.0634155,
4330,-0.0683594,0.0629089,
4332,-0.0372314,0.062207,
4334,0.03479,0.0622986,
4336,-0.0402832,0.0610596,
4338,-0.0811768,0.0605652,
4340,-0.124512,0.0609375,
4342,-0.0152588,0.0596863,
4344,0.0390625,0.059436,
4346,0.0372314,0.0596313,
4348,0.0372314,0.0596863,
4350,-0.0183105,0.059137,
4352,0.152588,0.059375,
4354,0.0231934,0.0587524,
4356,-0.0158691,0.0576599,
4358,-0.0396729,0.0572754,
4360,-0.0323486,0.057428,
4362,-0.0976563,0.05802,
4364,-0.055542,0.0574219,
4366,-0.0909424,0.0581604,
4368,-0.0463867,0.0571716,
4370,-0.0317383,0.057373,
4372,-0.0921631,0.0579834,
4374,-0.0158691,0.0577209,
4376,-0.0134277,0.0569946,
4378,0.0689697,0.0572205,
4380,0.0268555,0.0574646,
4382,0.0878906,0.0580261,
4384,0.184937,0.0591187,
4386,0.10498,0.0591553,
4388,0.168457,0.0605713,
4390,0.00305176,0.0596375,
4392,-0.0299072,0.0598633,
4394,0.0146484,0.0588867,
4396,0.0634766,0.0568909,
4398,-0.219116,0.05896,
4400,-0.170288,0.0604248,
4402,-0.135498,0.0614929,
4404,-0.0366211,0.0596558,
4406,-0.15625,0.0600647,
4408,-0.0830078,0.06073,
4410,0.0402832,0.0607605,
4412,0.0390625,0.0606018,
4414,-0.078125,0.061377,
4416,0.0183105,0.0612732,
4418,0.0872803,0.0620178,
4420,-0.0128174,0.0614929,
4422,0.00549316,0.0611633,
4424,-0.00976563,0.0601135,
4426,0.0738525,0.0606689,
4428,-0.0805664,0.0600891,
4430,-0.0616455,0.0606934,
4432,0.0567627,0.0607788,
4434,0.0128174,0.0599304,
4436,-0.0506592,0.060199,
4438,0.0305176,0.0594543,
4440,-0.0500488,0.0595764,
4442,-0.0427246,0.0599854,
4444,0.0592041,0.0599548,
4446,-0.0244141,0.0594055,
4448,-0.0231934,0.059613,
4450,-0.0360107,0.0598633,
4452,0.065918,0.0592651,
4454,-0.0341797,0.0596008,
4456,-0.0274658,0.059552,
4458,0.022583,0.0590637,
4460,0.114746,0.0591309,
4462,-0.0482178,0.0586182,
4464,0.0708008,0.0592041,
4466,0.0543213,0.0597168,
4468,-0.0585938,0.0601624,
4470,-0.0457764,0.0599731,
4472,0.0439453,0.0598206,
4474,0.0292969,0.0586243,
4476,0.0512695,0.0577576,
4478,-0.200806,0.0592896,
4480,-0.0726318,0.0597107,
4482,0.0775146,0.0600952,
4484,0.00915527,0.059552,
4486,0.012207,0.0589478,
4488,-0.249023,0.0612732,
4490,0.00244141,0.0594177,
4492,0.0396729,0.0588928,
4494,-0.0500488,0.0592834,
4496,0.00976563,0.0591125,
4498,0.0152588,0.0579529,
4500,-0.0292969,0.05755,
4502,0.0854492,0.0578491,
4504,-0.0543213,0.057959,
4506,0.0506592,0.0578003,
4508,0.0561523,0.0577332,
4510,-0.0708008,0.0580322,
4512,-0.0592041,0.0582458,
4514,-0.0219727,0.058374,
4516,-0.0152588,0.0584412,
4518,0.0164795,0.0584961,
4520,0.00244141,0.0578918,
4522,0.0964355,0.0585388,
4524,0.113525,0.0583191,
4526,-0.0305176,0.0580566,
4528,0.020752,0.0581726,
4530,0.136108,0.0588501,
4532,-0.0177002,0.0586548,
4534,-0.0280762,0.0585876,
4536,-0.00976563,0.0582825,
4538,-0.0952148,0.0584229,
4540,-0.0982666,0.0581604,
4542,-0.0500488,0.0585083,
4544,-0.0213623,0.0583313,
4546,-0.0543213,0.0585022,
4548,-0.0280762,0.0584106,
4550,-0.0427246,0.0586548,
4552,-0.043335,0.0575623,
4554,0.0946045,0.0582764,
4556,0.067749,0.0587952,
4558,0.0830078,0.0592285,
4560,-0.0238037,0.0591431,
4562,-0.124512,0.0594116,
4564,0.0921631,0.0597778,
4566,0.0732422,0.0596008,
4568,0.0183105,0.0593201,
4570,-0.00793457,0.059082,
4572,0.0494385,0.0586548,
4574,-0.00183105,0.0585144,
4576,-0.0714111,0.0590942,
4578,-0.0592041,0.0589966,
4580,0.10437,0.0597717,
4582,-0.0939941,0.0598328,
4584,-0.0378418,0.0583618,
4586,-0.165405,0.0589661,
4588,-0.141602,0.0586975,
4590,-0.0622559,0.0592896,
4592,0.0384521,0.059375,
4594,-0.0689697,0.0599182,
4596,-0.00549316,0.0593384,
4598,-0.0012207,0.0571594,
4600,-0.0445557,0.0559021,
4602,-0.0274658,0.0548218,
4604,0.0402832,0.0548584,
4606,0.00976563,0.0533936,
4608,0.088501,0.0534485,
4610,0.00549316,0.0531006,
4612,0.0744629,0.0534546,
4614,0.0012207,0.0526855,
4616,-0.0158691,0.0526611,
4618,0.0158691,0.051947,
4620,-0.0567627,0.0523865,
4622,-0.0134277,0.0524658,
4624,-0.0695801,0.053064,
4626,-0.0402832,0.0527283,
4628,-0.0439453,0.0523621,
4630,0.10437,0.0527893,
4632,0.194092,0.0541626,
4634,0.0390625,0.054425,
4636,-0.0250244,0.0541687,
4638,0.0524902,0.0543884,
4640,0.032959,0.0542175,
4642,-0.0585938,0.0543762,
4644,-0.0439453,0.0542236,
4646,-0.0317383,0.0542969,
4648,-0.0683594,0.0547485,
4650,-0.0817871,0.0552063,
4652,-0.0518799,0.0550659,
4654,0.0683594,0.0554077,
4656,-0.0842285,0.0559753,
4658,-0.0695801,0.0564453,
4660,-0.0524902,0.0558228,
4662,0.0463867,0.0558044,
4664,-0.0335693,0.0554321,
4666,-0.0408936,0.0552979,
4668,0.0994873,0.0557068,
4670,-0.0219727,0.0554687,
4672,-0.0469971,0.0554993,
4674,0.134277,0.0565491,
4676,0.0311279,0.0563477,
4678,0.088501,0.0552246,
4680,-0.0439453,0.0549377,
4682,-0.0689697,0.0548523,
4684,0.187988,0.0566406,
4686,0.0665283,0.0571838,
4688,0.00732422,0.0547668,
4690,-0.134277,0.0560852,
4692,0.0622559,0.056311,
4694,0.00183105,0.0558289,
4696,-0.144653,0.0571777,
4698,-0.090332,0.0579285,
4700,0.00915527,0.0577271,
4702,-0.022583,0.0570984,
4704,-0.120239,0.0577576,
4706,0.067749,0.0579285,
4708,0.255127,0.0599182,
4710,0.109253,0.0603027,
4712,-0.202637,0.0617371,
4714,-0.106201,0.0625793,
4716,0.0915527,0.0633423,
4718,-0.0292969,0.0634705,
4720,-0.170898,0.065155,
4722,-0.184937,0.06604,
4724,-0.136719,0.066272,
4726,-0.0384521,0.0663513,
4728,-0.0317383,0.0664612,
4730,-0.0427246,0.0655273,
4732,0.00793457,0.0654297,
4734,0.0762939,0.0659119,
4736,0.00732422,0.0658875,
4738,0.0317383,0.0652527,
4740,-0.101318,0.0652832,
4742,-0.0360107,0.0651428,
4744,0.0317383,0.0652466,
4746,0.0488281,0.0651917,
4748,-0.0952148,0.065863,
4750,0.0146484,0.0655823,
4752,0.0457764,0.0656067,
4754,0.116577,0.0658264,
4756,-0.0256348,0.0654053,
4758,0.10437,0.0656189,
4760,0.0158691,0.0655396,
4762,0.098877,0.0652832,
4764,0.127563,0.0656372,
4766,-0.0286865,0.0651917,
4768,0.0469971,0.0654785,
4770,0.0842285,0.0662415,
4772,-0.0762939,0.06651,
4774,0.100098,0.0674927,
4776,-0.205688,0.0688354,
4778,-0.143433,0.0696777,
4780,-0.00244141,0.0686584,
4782,-0.090332,0.0686218,
4784,-0.160522,0.0698486,
4786,-0.108643,0.069281,
4788,-0.0817871,0.0686829,
4790,-0.0482178,0.0685425,
4792,0.0238037,0.068396,
4794,0.0463867,0.0681702,
4796,0.043335,0.0685486,
4798,0.0189209,0.0687256,
4800,-0.00793457,0.0683594,
4802,0.135498,0.0694397,
4804,0.0653076,0.0696899,
4806,-0.00244141,0.0696167,
4808,-0.0317383,0.0690491,
4810,-0.0634766,0.0696289,
4812,0.135498,0.0702393,
4814,0.00305176,0.0702576,
4816,-0.112915,0.071228,
4818,0.00915527,0.0711609,
4820,-0.106812,0.0716614,
4822,0.0463867,0.071991,
4824,0.187378,0.0731689,
4826,-0.0738525,0.0735046,
4828,0.0189209,0.0732544,
4830,-0.228271,0.0744934,
4832,0.03479,0.0729004,
4834,0.0805664,0.0733154,
4836,-0.114136,0.0742065,
4838,-0.0756836,0.0744385,
4840,-0.185547,0.0759644,
4842,-0.117798,0.0765564,
4844,0.0213623,0.0763306,
4846,0.0701904,0.0767151,
4848,0.00793457,0.0761108,
4850,0.0408936,0.0757019,
4852,0.0866699,0.0760498,
4854,-0.107422,0.0764404,
4856,-0.0286865,0.075885,
4858,0.12146,0.0764038,
4860,0.148926,0.0773682,
4862,0.0628662,0.077533,
4864,-0.0152588,0.0773499,
4866,0.057373,0.0775146,
4868,-0.0610352,0.0771301,
4870,0.189209,0.0788025,
4872,-0.142212,0.0797546,
4874,-0.134277,0.0797546,
4876,-0.0140381,0.0795837,
4878,-0.12085,0.0799072,
4880,-0.0823975,0.0802917,
4882,-0.115967,0.0807617,
4884,-0.0469971,0.0793518,
4886,-0.00915527,0.0787781,
4888,0.0494385,0.0791992,
4890,0.0561523,0.078418,
4892,-0.0567627,0.078363,
4894,0.0634766,0.0789795,
4896,-0.000610352,0.0775391,
4898,0.0250244,0.076886,
4900,-0.0848389,0.0776428,
4902,-0.0250244,0.0776672,
4904,-0.0012207,0.0764771,
4906,0.0427246,0.0762268,
4908,-0.00366211,0.0737122,
4910,0.088501,0.0735046,
4912,0.067749,0.0721558,
4914,-0.0738525,0.0718323,
4916,-0.0238037,0.0711548,
4918,0.117188,0.0720337,
4920,0.101929,0.071344,
4922,-0.111694,0.0706116,
4924,-0.0506592,0.069751,
4926,0.0482178,0.0698486,
4928,-0.0878906,0.0704102,
4930,-0.0372314,0.0703552,
4932,-0.0518799,0.0707947,
4934,-0.0317383,0.0703491,
4936,-0.0158691,0.0704346,
4938,0.0109863,0.0702271,
4940,-0.112305,0.0703369,
4942,-0.114136,0.0711182,
4944,0.00427246,0.0708435,
4946,0.0714111,0.0710693,
4948,0.134277,0.07146,
4950,0.0189209,0.0715027,
4952,-0.0860596,0.0719055,
4954,-0.00854492,0.0708252,
4956,0.179443,0.0723633,
4958,0.0842285,0.0721619,
4960,-0.114746,0.0731506,
4962,-0.157471,0.0737366,
4964,-0.0506592,0.0729675,
4966,-0.0384521,0.0730652,
4968,-0.0897217,0.0734924,
4970,-0.0634766,0.0732849,
4972,-0.0238037,0.07276,
4974,-0.0140381,0.0718994,
4976,-0.0439453,0.070282,
4978,0.0762939,0.0696106,
4980,0.130005,0.0708862,
4982,-0.0622559,0.0706055,
4984,-0.00183105,0.0690186,
4986,0.0219727,0.0681519,
4988,-0.0494385,0.0678284,
4990,-0.0146484,0.0674927,
4992,0.0189209,0.0674438,
4994,-0.0482178,0.0674622,
4996,-0.00488281,0.0670776,
4998,-0.0976563,0.067865,
5000,0.111694,0.0689026,
5002,0.0482178,0.0680298,
5004,0.0012207,0.0673889,
5006,-0.0109863,0.0674744,
5008,-0.0286865,0.0674438,
5010,0.0421143,0.0672302,
5012,0.0134277,0.0660095,
5014,-0.0744629,0.0667236,
5016,-0.0933838,0.0665283,
5018,-0.0341797,0.0667786,
5020,0.0488281,0.0661987,
5022,0.0750732,0.0664856,
5024,0.00915527,0.0647034,
5026,-0.0134277,0.0640991,
5028,0.00244141,0.0639343,
5030,0.00793457,0.061731,
5032,0.0726318,0.0621094,
5034,-0.0341797,0.0616455,
5036,0.0146484,0.0606506,
5038,0.0585938,0.0604797,
5040,-0.238037,0.0610046,
5042,0.0518799,0.0603455,
5044,-0.0238037,0.0603699,
5046,0.0518799,0.0601868,
5048,-0.0811768,0.0609192,
5050,-0.113525,0.0616455,
5052,-0.0646973,0.0614258,
5054,-0.0622559,0.0609741,
5056,0.0152588,0.0608398,
5058,-0.0415039,0.0600403,
5060,0.012207,0.0586731,
5062,0.0567627,0.0586121,
5064,0.0494385,0.0589539,
5066,0.0872803,0.0592529,
5068,0.00244141,0.058667,
5070,-0.0915527,0.0576904,
5072,-0.0134277,0.0564026,
5074,-0.0213623,0.0552734,
5076,-0.0286865,0.0554199,
5078,0.0335693,0.0545471,
5080,0.0274658,0.0539978,
5082,-0.228271,0.0551208,
5084,0.020752,0.0548584,
5086,0.0720215,0.0554871,
5088,0.0439453,0.0554321,
5090,0.0323486,0.0551941,
5092,-0.0500488,0.055127,
5094,-0.101318,0.0555054,
5096,-0.00244141,0.0555237,
5098,0.0732422,0.0560059,
5100,0.0994873,0.0561523,
5102,-0.0268555,0.0561707,
5104,-0.108032,0.0572388,
5106,-0.00549316,0.0568665,
5108,0.0860596,0.0576904,
5110,-0.022583,0.0570312,
5112,-0.00183105,0.0563721,
5114,-0.0811768,0.0564453,
5116,0.022583,0.0564331,
5118,-0.0250244,0.0555115,
5120,-0.000610352,0.0544983,
5122,-0.0714111,0.0540955,
5124,-0.0109863,0.0536987,
5126,0.00610352,0.0532776,
5128,-0.0854492,0.0532532,
5130,-0.0195313,0.0530762,
5132,-0.0537109,0.0530945,
5134,0.0616455,0.0533936,
5136,0.143433,0.0546692,
5138,-0.0177002,0.0547363,
5140,0.0872803,0.0544861,
5142,0.0140381,0.0534851,
5144,0.0390625,0.053833,
5146,0.0872803,0.0539917,
5148,-0.0518799,0.0531677,
5150,-0.134277,0.0543213,
5152,-0.0750732,0.0542114,
5154,0.0305176,0.0544312,
5156,-0.010376,0.0527405,
5158,-0.0939941,0.0528381,
5160,0.0921631,0.0526123,
5162,-0.0463867,0.0515015,
5164,-0.0836182,0.0518311,
5166,-0.0012207,0.0514587,
5168,0.0299072,0.0508606,
5170,-0.0390625,0.0506165,
5172,-0.100708,0.0513855,
5174,0.00427246,0.0512878,
5176,0.0402832,0.0512512,
5178,0.0616455,0.0511047,
5180,-0.0158691,0.0499634,
5182,-0.012207,0.0494629,
5184,0.0714111,0.0501587,
5186,0.0250244,0.0501892,
5188,0.0231934,0.0499268,
5190,-0.0134277,0.0499146,
5192,-0.103149,0.0507568,
5194,-0.0567627,0.0508423,
5196,-0.0848389,0.0516418,
5198,-0.0189209,0.0508545,
5200,-0.0189209,0.0499268,
5202,-0.0317383,0.049762,
5204,0.0292969,0.0500427,
5206,-0.0689697,0.0506226,
5208,-0.0012207,0.0503479,
5210,0.0250244,0.050177,
5212,0.0653076,0.0506958,
5214,-0.090332,0.0508545,
5216,-0.03479,0.0502686,
5218,-0.0183105,0.0501099,
5220,-0.0402832,0.0500244,
5222,0,0.0492737,
5224,-0.000610352,0.0491882,
5226,-0.00671387,0.0491211,
5228,0.151978,0.0506165,
5230,0.0195313,0.0507324,
5232,0.0274658,0.0502808,
5234,0.10437,0.0509827,
5236,-0.00549316,0.0508911,
5238,0.0769043,0.0510742,
5240,-0.0665283,0.0493591,
5242,-0.10498,0.0498901,
5244,-0.0457764,0.0501099,
5246,-0.0366211,0.0499573,
5248,-0.0927734,0.0500732,
5250,-0.0616455,0.0495544,
5252,-0.0408936,0.0493164,
5254,-0.0134277,0.0488281,
5256,0.00610352,0.0487366,
5258,-0.0170898,0.0484924,
5260,0.0115967,0.0484863,
5262,-0.0488281,0.048407,
5264,0.0640869,0.0485535,
5266,0.0341797,0.0480225,
5268,0.0439453,0.0484375,
5270,0.0177002,0.047699,
5272,-0.0238037,0.0478027,
5274,-0.0408936,0.047998,
5276,0.022583,0.047937,
5278,0.0408936,0.0480103,
5280,-0.0158691,0.0478943,
5282,-0.0109863,0.0457214,
5284,0.0866699,0.0463806,
5286,-0.142822,0.0470886,
5288,0.00183105,0.0466675,
5290,0.090332,0.0472473,
5292,-0.0128174,0.046875,
5294,-0.03479,0.0462097,
5296,-0.00976563,0.046283,
5298,-0.00427246,0.0455933,
5300,-0.0701904,0.0453003,
5302,0.0268555,0.0453003,
5304,-0.0213623,0.0444336,
5306,-0.0256348,0.044635,
5308,-0.0256348,0.0440308,
5310,-0.0164795,0.0439697,
5312,0.0421143,0.0443726,
5314,0.0158691,0.0437195,
5316,-0.0543213,0.0440369,
5318,-0.00610352,0.0438477,
5320,0.0427246,0.0442688,
5322,0.0274658,0.0438293,
5324,0.0219727,0.0439392,
5326,-0.00427246,0.0439209,
5328,-0.0335693,0.0434021,
5330,0.0372314,0.0435791,
5332,0.0561523,0.0436035,
5334,-0.115967,0.0441467,
5336,-0.0524902,0.0432373,
5338,0.115356,0.0442139,
5340,-0.0134277,0.0434753,
5342,-0.00488281,0.0433838,
5344,-0.0701904,0.0436951,
5346,0.00915527,0.0429138,
5348,0.0305176,0.0427002,
5350,0.0268555,0.041626,
5352,-0.0152588,0.0410278,
5354,-0.0408936,0.0411316,
5356,0.0378418,0.0414063,
5358,-0.0238037,0.0407043,
5360,-0.0872803,0.0406555,
5362,0.00183105,0.04021,
5364,0.0390625,0.0397644,
5366,-0.00732422,0.0398254,
5368,-0.140381,0.0409302,
5370,0.012207,0.0406616,
5372,0.0250244,0.0399048,
5374,0.147705,0.0413391,
5376,-0.0384521,0.0413208,
5378,0.0183105,0.0408875,
5380,-0.0402832,0.0411316,
5382,0.0177002,0.0411865,
5384,0.0415039,0.0408875,
5386,0.00854492,0.0407227,
5388,-0.090332,0.041394,
5390,-0.127563,0.0425354,
5392,-0.0262451,0.0417664,
5394,-0.0213623,0.0414124,
5396,-0.0213623,0.0407776,
5398,0.0622559,0.0412109,
5400,-0.090332,0.041925,
5402,0.00732422,0.0416809,
5404,0.0445557,0.0418335,
5406,-0.0115967,0.0412598,
5408,0.0500488,0.041748,
5410,-0.0646973,0.0421448,
5412,0.0750732,0.0422424,
5414,-0.0402832,0.0417419,
5416,-0.0653076,0.0420471,
5418,-0.0665283,0.0425293,
5420,0.0408936,0.0425354,
5422,-0.00854492,0.0426208,
5424,-0.0366211,0.042981,
5426,-0.0250244,0.0431641,
5428,0.00732422,0.0417175,
5430,0.0177002,0.0416992,
5432,-0.0720215,0.0421448,
5434,-0.0317383,0.0414185,
5436,0.0866699,0.0422302,
5438,0.0653076,0.0421143,
5440,0.00915527,0.0415405,
5442,-0.0427246,0.040918,
5444,-0.0177002,0.0406372,
5446,0.140381,0.0416748,
5448,0.0811768,0.0415588,
5450,-0.0415039,0.0413574,
5452,-0.0195313,0.0411438,
5454,-0.0427246,0.0414368,
5456,0.00610352,0.0414368,
5458,-0.0756836,0.0420227,
5460,-0.00915527,0.0419983,
5462,-0.057373,0.0420837,
5464,-0.0854492,0.0422974,
5466,0.0964355,0.0429199,
5468,0.112915,0.0436096,
5470,-0.0140381,0.043573,
5472,-0.012207,0.043457,
5474,0.0646973,0.0436951,
5476,0.0671387,0.0441406,
5478,-0.090332,0.044635,
5480,-0.0238037,0.0447144,
5482,-0.0427246,0.0450317,
5484,-0.0909424,0.0450745,
5486,-0.0402832,0.0440491,
5488,-0.0817871,0.0448486,
5490,-0.0305176,0.0442505,
5492,0.111084,0.0452332,
5494,-0.045166,0.0453369,
5496,0.0183105,0.0454224,
5498,0.108643,0.0464661,
5500,0.0610352,0.0463745,
5502,-0.0860596,0.0469666,
5504,0.0366211,0.0471191,
5506,0.0946045,0.0478088,
5508,0.0463867,0.0480164,
5510,-0.100708,0.0488586,
5512,-0.148926,0.0499268,
5514,0.0201416,0.0499695,
5516,-0.0158691,0.049585,
5518,-0.0128174,0.0496521,
5520,-0.0604248,0.0498291,
5522,-0.0939941,0.0504944,
5524,-0.0219727,0.0504944,
5526,0.0756836,0.0512085,
5528,0.0585938,0.0514587,
5530,-0.0665283,0.0517517,
5532,-0.0158691,0.0513489,
5534,0.0537109,0.0507263,
5536,0.0189209,0.0503906,
5538,-0.0109863,0.0493469,
5540,-0.0396729,0.0496094,
5542,0.020752,0.0497681,
5544,0.0109863,0.049176,
5546,0.0396729,0.0494812,
5548,0.0128174,0.0493042,
5550,-0.000610352,0.0490417,
5552,-0.0256348,0.0491455,
5554,0.0640869,0.0493774,
5556,-0.0488281,0.0494873,
5558,-0.0164795,0.0494141,
5560,-0.0476074,0.0490173,
5562,-0.0445557,0.0494446,
5564,0.020752,0.0492615,
5566,0.0665283,0.0498535,
5568,0.00732422,0.0485229,
5570,-0.0201416,0.0486023,
5572,-0.0396729,0.0487488,
5574,0.0738525,0.0480103,
5576,-0.0177002,0.0478027,
5578,-0.0262451,0.0478821,
5580,-0.0506592,0.0479858,
5582,-0.0274658,0.0480835,
5584,-0.0500488,0.0481689,
5586,0.00793457,0.0481628,
5588,0.00427246,0.0473022,
5590,-0.012207,0.0461487,
5592,0.0164795,0.046051,
5594,-0.00915527,0.045929,
5596,0.0836182,0.0465515,
5598,-0.0366211,0.0462952,
5600,0.0665283,0.0460571,
5602,0.144653,0.0474304,
5604,0.0494385,0.0474792,
5606,-0.159912,0.0489624,
5608,0.0665283,0.0491272,
5610,0.0982666,0.0494629,
5612,-0.0817871,0.04953,
5614,-0.0415039,0.0495422,
5616,0.000610352,0.0488953,
5618,-0.0695801,0.0489258,
5620,0.0970459,0.0494873,
5622,-0.0592041,0.0499939,
5624,-0.0164795,0.0497925,
5626,0.0354004,0.0498962,
5628,0.0244141,0.0500671,
5630,-0.109863,0.0509888,
5632,-0.0360107,0.0506287,
5634,-0.0396729,0.050708,
5636,-0.0695801,0.0505371,
5638,-0.0244141,0.0501282,
5640,-0.03479,0.0503845,
5642,-0.0793457,0.0507507,
5644,0.0457764,0.0510315,
5646,0.102539,0.0506531,
5648,0.0506592,0.0503479,
5650,-0.147095,0.0514038,
5652,0.0543213,0.0517517,
5654,0.0866699,0.0521912,
5656,-0.0183105,0.0523132,
5658,-0.0762939,0.0523193,
5660,-0.00183105,0.0522461,
5662,-0.00854492,0.0517578,
5664,-0.0769043,0.0516724,
5666,-0.0177002,0.050885,
5668,0.0421143,0.050177,
5670,-0.00183105,0.0500549,
5672,-0.0268555,0.0502014,
5674,-0.0299072,0.0498535,
5676,0.0665283,0.0498474,
5678,0.0213623,0.0491577,
5680,0.078125,0.0497009,
5682,0.00244141,0.0492981,
5684,-0.00793457,0.048468,
5686,0.0262451,0.0483276,
5688,0.111694,0.0486267,
5690,-0.0567627,0.0488892,
5692,-0.00366211,0.0478149,
5694,-0.140991,0.0487732,
5696,0.0787354,0.0493774,
5698,-0.0823975,0.049115,
5700,-0.100098,0.0495056,
5702,0.0378418,0.0490234,
5704,0.032959,0.0489868,
5706,0.0494385,0.0485352,
5708,0.00671387,0.0481384,
5710,-0.0952148,0.0480835,
5712,0.0524902,0.0471191,
5714,0.10498,0.0479675,
5716,-0.00610352,0.0478699,
5718,-0.03479,0.0480896,
5720,-0.0836182,0.0483215,
5722,-0.0402832,0.0477844,
5724,-0.0354004,0.0479187,
5726,0.0201416,0.0473633,
5728,-0.0177002,0.0469543,
5730,-0.0836182,0.0471252,
5732,0.0201416,0.047168,
5734,0.0164795,0.0467957,
5736,0.065918,0.0472656,
5738,0.0256348,0.0474121,
5740,-0.178833,0.0488037,
5742,0.020752,0.0488037,
5744,0.0823975,0.0495178,
5746,0.0268555,0.0493896,
5748,-0.0378418,0.0496399,
5750,-0.0628662,0.0502625,
5752,0.0427246,0.0504333,
5754,0.0726318,0.0505188,
5756,-0.0366211,0.0503967,
5758,0.00610352,0.050293,
5760,-0.0238037,0.0500549,
5762,0.0262451,0.0498718,
5764,-0.0164795,0.0498291,
5766,-0.12207,0.0503845,
5768,-0.0183105,0.0504944,
5770,-0.00915527,0.0503845,
5772,0.0762939,0.0507507,
5774,0.0640869,0.0506531,
5776,0.0512695,0.0509888,
5778,-0.0378418,0.0511047,
5780,0.0305176,0.0509033,
5782,0.0305176,0.0509338,
5784,-0.0286865,0.0507202,
5786,-0.0848389,0.0514893,
5788,-0.113525,0.0525818,
5790,-0.0854492,0.0533142,
5792,-0.0305176,0.0534546,
5794,-0.0628662,0.0539917,
5796,0.00915527,0.0532471,
5798,0.182495,0.0547058,
5800,-0.00549316,0.0540955,
5802,-0.0714111,0.053363,
5804,0.107422,0.0539429,
5806,0.0292969,0.0526367,
5808,-0.0494385,0.0524658,
5810,0.00549316,0.0515381,
5812,0.0726318,0.0514465,
5814,-0.0238037,0.0512695,
5816,-0.0915527,0.052179,
5818,-0.0158691,0.0516418,
5820,0.0543213,0.0512146,
5822,0.0744629,0.0513672,
5824,0.0170898,0.0513733,
5826,-0.0195313,0.0512146,
5828,-0.15564,0.0525269,
5830,-0.0793457,0.0522217,
5832,0.0427246,0.0522888,
5834,0.0158691,0.0520508,
5836,-0.0299072,0.0516541,
5838,-0.00610352,0.0514709,
5840,0.00549316,0.051178,
5842,0.0360107,0.0507446,
5844,0.0970459,0.0512573,
5846,-0.00854492,0.0503174,
5848,-0.0231934,0.0500427,
5850,0.045166,0.0490234,
5852,0.0396729,0.048877,
5854,-0.112915,0.0491394,
5856,-0.00610352,0.0490173,
5858,-0.0421143,0.0486755,
5860,-0.0921631,0.0495789,
5862,0.0842285,0.0503357,
5864,-0.0317383,0.049884,
5866,0.0244141,0.0499512,
5868,-0.0286865,0.0498169,
5870,-0.0280762,0.0500793,
5872,0.0469971,0.0502808,
5874,-0.0396729,0.0503784,
5876,-0.0469971,0.0501831,
5878,-0.00183105,0.0499878,
5880,0.012207,0.0493286,
5882,-0.0250244,0.0495544,
5884,-0.0128174,0.0496033,
5886,-0.0738525,0.0500793,
5888,0.0311279,0.0492737,
5890,0.0238037,0.0489441,
5892,0.0250244,0.0491577,
5894,-0.0469971,0.0482178,
5896,-0.0457764,0.0478882,
5898,0.0524902,0.0475891,
5900,0.0476074,0.0470642,
5902,0.00976563,0.0467834,
5904,-0.03479,0.0468018,
5906,0.010376,0.0464111,
5908,0.0268555,0.0466125,
5910,-0.00549316,0.0457153,
5912,-0.00244141,0.0452148,
5914,0.00732422,0.0442383,
5916,0.109863,0.0452759,
5918,0.0408936,0.0453369,
5920,-0.0598145,0.0450989,
5922,-0.0170898,0.0448669,
5924,0.127563,0.0457886,
5926,0.0616455,0.0462036,
5928,-0.0439453,0.0464661,
5930,-0.143433,0.0470642,
5932,-0.00183105,0.0468811,
5934,-0.0170898,0.0468872,
5936,-0.0567627,0.0467957,
5938,-0.0170898,0.0467102,
5940,-0.0463867,0.0453857,
5942,0.00610352,0.0452393,
5944,0.00854492,0.0445007,
5946,-0.00366211,0.0442688,
5948,0.03479,0.0442383,
5950,0.00427246,0.0436523,
5952,0.0872803,0.0440979,
5954,0.0213623,0.0435852,
5956,-0.03479,0.0435669,
5958,-0.0494385,0.0440002,
5960,0.0506592,0.0442688,
5962,0.0549316,0.0445557,
5964,-0.0354004,0.0447449,
5966,-0.172729,0.0452515,
5968,-0.0012207,0.0450806,
5970,-0.0231934,0.0452209,
5972,0.00183105,0.0444763,
5974,-0.0756836,0.0445923,
5976,0.00244141,0.044104,
5978,-0.0543213,0.0442688,
5980,0.0408936,0.0443726,
5982,-0.00732422,0.0441406,
5984,0.0549316,0.0444031,
5986,0.00549316,0.0436096,
5988,0.00732422,0.0425476,
5990,-0.0164795,0.0418579,
5992,0.0256348,0.0418091,
5994,0.0323486,0.0415039,
5996,0.0512695,0.041925,
5998,0.0158691,0.0402588,
6000,-0.0463867,0.0406677,
6002,0.107422,0.0410278,
6004,0.0622559,0.0405762,
6006,0.00183105,0.0403015,
6008,-0.0366211,0.0401733,
6010,-0.0244141,0.0403625,
6012,0.0140381,0.0397766,
6014,-0.0262451,0.039801,
6016,-0.0280762,0.0391663,
6018,-0.0640869,0.0396484,
6020,-0.0506592,0.0396118,
6022,-0.022583,0.039093,
6024,-0.0811768,0.0397339,
6026,-0.0585938,0.0401245,
6028,0.0238037,0.0388062,
6030,0.0238037,0.0382507,
6032,0.0646973,0.0384705,
6034,-0.0317383,0.0386292,
6036,-0.088501,0.0392151,
6038,0.112915,0.0402832,
6040,-0.0476074,0.0407043,
6042,-0.0146484,0.0404907,
6044,-0.00305176,0.0395508,
6046,-0.0848389,0.0403137,
6048,0.0189209,0.040271,
6050,0.0262451,0.0400818,
6052,0.0323486,0.0400085,
6054,-0.0170898,0.0390503,
6056,-0.0354004,0.0393433,
6058,0.0439453,0.0393616,
6060,0.0299072,0.038739,
6062,-0.0366211,0.0382629,
6064,-0.0561523,0.0385071,
6066,-0.043335,0.0386963,
6068,-0.0286865,0.0386963,
6070,-0.0524902,0.0389404,
6072,-0.00549316,0.0385254,
6074,0.0177002,0.0383057,
6076,-0.0457764,0.0382935,
6078,-0.00854492,0.0383606,
6080,0.032959,0.0385681,
6082,-0.0238037,0.0385559,
6084,0.00305176,0.0384583,
6086,0.0177002,0.0378967,
6088,0.0640869,0.0382263,
6090,0.0317383,0.0383057,
6092,-0.010376,0.0381592,
6094,0.0280762,0.03797,
6096,0.0213623,0.0377258,
6098,0.0341797,0.0375427,
6100,0.0457764,0.0375244,
6102,0.0354004,0.0377808,
6104,0.00427246,0.0374756,
6106,-0.00183105,0.0373901,
6108,0.0128174,0.0372498,
6110,0.00976563,0.0372925,
6112,-0.0341797,0.0376099,
6114,-0.0250244,0.0377869,
6116,-0.00366211,0.0367249,
6118,-0.0134277,0.0364502,
6120,0,0.0358521,
6122,-0.0158691,0.0358398,
6124,-0.0335693,0.0348999,
6126,0.0360107,0.0346436,
6128,0.0109863,0.034314,
6130,0.0366211,0.0332458,
6132,-0.0183105,0.0334106,
6134,-0.000610352,0.0332458,
6136,0.0335693,0.0330139,
6138,0.0115967,0.032959,
6140,-0.000610352,0.0325012,
6142,0.0524902,0.0329651,
6144,-0.00244141,0.0329041,
6146,0.00915527,0.032959,
6148,0.0469971,0.0330811,
6150,0.102539,0.0340637,
6152,-0.0592041,0.033783,
6154,-0.108032,0.0346497,
6156,0,0.0343018,
6158,0.0134277,0.0339417,
6160,-0.0152588,0.0335876,
6162,-0.0628662,0.033667,
6164,-0.0811768,0.0341248,
6166,-0.0469971,0.0328674,
6168,-0.0317383,0.0331726,
6170,0.00305176,0.0329712,
6172,0.0341797,0.0332947,
6174,-0.00183105,0.0325562,
6176,0.0531006,0.0330627,
6178,0.0445557,0.0329651,
6180,0.000610352,0.0325623,
6182,0.120239,0.0336914,
6184,0.125122,0.0343933,
6186,0.151978,0.0358582,
6188,-0.088501,0.0366699,
6190,-0.0927734,0.0374329,
6192,-0.0592041,0.0377686,
6194,-0.00915527,0.0375366,
6196,-0.0830078,0.037854,
6198,-0.124512,0.0389404,
6200,-0.112305,0.0395996,
6202,-0.118408,0.0397095,
6204,-0.0463867,0.0395508,
6206,0.0140381,0.0396729,
6208,0.0305176,0.0396118,
6210,-0.0799561,0.0401672,
6212,0.0299072,0.0403259,
6214,-0.0219727,0.0402832,
6216,-0.0756836,0.0407593,
6218,-0.0372314,0.0404907,
6220,-0.0262451,0.0402466,
6222,-0.0457764,0.0404785,
6224,-0.0567627,0.0402344,
6226,-0.0250244,0.0398987,
6228,-0.0280762,0.0399414,
6230,-0.0128174,0.0398315,
6232,-0.043335,0.0396179,
6234,0.0170898,0.0394714,
6236,-0.0354004,0.0389404,
6238,-0.0134277,0.0379456,
6240,0.010376,0.0375732,
6242,-0.0170898,0.0375977,
6244,0.0012207,0.0375793,
6246,-0.0134277,0.0368652,
6248,-0.0317383,0.0369934,
6250,-0.0262451,0.0369934,
6252,0.00427246,0.0367126,
6254,-0.0256348,0.0367981,
6256,-0.0268555,0.0367126,
6258,-0.00732422,0.0363464,
6260,-0.0268555,0.0363159,
6262,0.00366211,0.0359863,
6264,0.00183105,0.0354431,
6266,0.020752,0.0352173,
6268,0.00183105,0.0349487,
6270,0.00610352,0.0344849,
6272,0.0012207,0.0344421,
6274,0.0262451,0.0345276,
6276,0.0231934,0.0343018,
6278,-0.0323486,0.0345398,
6280,-0.0189209,0.0343994,
6282,0.0170898,0.0343323,
6284,-0.00854492,0.0343872,
6286,0.0115967,0.0343262,
6288,-0.0317383,0.0340027,
6290,-0.0396729,0.034082,
6292,0.00915527,0.0340698,
6294,0.0506592,0.0342957,
6296,0.0158691,0.0342407,
6298,0.0238037,0.034137,
6300,0.0390625,0.0340698,
6302,0.0158691,0.0338745,
6304,0.0891113,0.0347229,
6306,0.0439453,0.035144,
6308,-0.012207,0.0351379,
6310,-0.0384521,0.0354248,
6312,-0.0311279,0.0353943,
6314,0.0158691,0.0353027,
6316,-0.0543213,0.0358093,
6318,-0.067749,0.0363525,
6320,-0.043335,0.0367859,
6322,-0.0549316,0.0371765,
6324,-0.00854492,0.0369263,
6326,0.00671387,0.0366333,
6328,-0.0427246,0.0369507,
6330,-0.0146484,0.036731,
6332,-0.0146484,0.0366943,
6334,-0.0170898,0.0368591,
6336,-0.0231934,0.0367554,
6338,-0.0146484,0.0367859,
6340,-0.0189209,0.036969,
6342,0.00183105,0.0364624,
6344,0.00427246,0.0364807,
6346,0.00854492,0.0364746,
6348,0.0231934,0.0362366,
6350,-0.00488281,0.03526,
6352,0.0152588,0.0348206,
6354,0.0115967,0.0338562,
6356,0.00976563,0.0339539,
6358,0.0115967,0.0339355,
6360,-0.00976563,0.0338806,
6362,0.00976563,0.0333496,
6364,-0.00610352,0.0325989,
6366,-0.0109863,0.0322388,
6368,0.0115967,0.0320374,
6370,0.012207,0.0321289,
6372,0.00976563,0.0318848,
6374,-0.0195313,0.0320618,
6376,0.0396729,0.0319275,
6378,0.0317383,0.0317993,
6380,-0.000610352,0.0317993,
6382,0.0183105,0.03078,
6384,0.043335,0.0299622,
6386,-0.010376,0.0285461,
6388,0.0195313,0.0278564,
6390,0.0128174,0.0270569,
6392,0.00793457,0.0265442,
6394,-0.00244141,0.0264771,
6396,-0.0146484,0.0257935,
6398,-0.00488281,0.0245972,
6400,0.00610352,0.0235352,
6402,-0.0201416,0.0225525,
6404,-0.0262451,0.0223511,
6406,-0.0177002,0.0223877,
6408,-0.00915527,0.0221741,
6410,-0.0189209,0.0215637,
6412,-0.0115967,0.0213806,
6414,-0.000610352,0.021167,
6416,-0.0354004,0.0207642,
6418,0.00793457,0.0204712,
6420,0.00244141,0.0202332,
6422,0.0274658,0.02005,
6424,-0.0140381,0.0196228,
6426,0.022583,0.0195984,
6428,0.012207,0.0194397,
6430,-0.00427246,0.0193542,
6432,0.0134277,0.0190552,
6434,0.022583,0.0191101,
6436,-0.0164795,0.0189209,
6438,-0.012207,0.0189087,
6440,-0.00549316,0.0188599,
6442,0.00732422,0.0187622,
6444,-0.00610352,0.018811,
6446,-0.00366211,0.0187134,
6448,0.0366211,0.0187622,
6450,0.0012207,0.018512,
6452,0.0115967,0.0185852,
6454,-0.0134277,0.0184631,
6456,0.0170898,0.0183655,
6458,-0.00305176,0.0183228,
6460,0,0.0180542,
6462,-0.00488281,0.0180664,
6464,-0.0323486,0.0183716,
6466,0.00915527,0.0182556,
6468,-0.0128174,0.0183655,
6470,-0.0219727,0.0185242,
6472,-0.000610352,0.0185181,
6474,-0.0213623,0.0184692,
6476,-0.010376,0.0183411,
6478,-0.0164795,0.0181824,
6480,-0.0195313,0.0181885,
6482,0.0109863,0.0181274,
6484,-0.0201416,0.0182434,
6486,0.0195313,0.0183228,
6488,0.00244141,0.0180298,
6490,0.0286865,0.0179199,
6492,-0.00671387,0.0178955,
6494,-0.0372314,0.0177612,
6496,0.00976563,0.0177002,
6498,0.0177002,0.0176392,
6500,0.0146484,0.017395,
6502,0.0164795,0.0174011,
6504,0.0134277,0.0166443,
6506,0.0231934,0.0164368,
6508,0.00976563,0.0164124,
6510,-0.0140381,0.0161682,
6512,0.0146484,0.0160034,
6514,0.0219727,0.0160645,
6516,-0.00854492,0.0156067,
6518,-0.0311279,0.0152405,
6520,-0.000610352,0.0148132,
6522,-0.00305176,0.0142944,
6524,-0.0384521,0.0145935,
6526,-0.022583,0.0147522,
6528,-0.00671387,0.0143921,
6530,-0.03479,0.0145935,
6532,-0.0109863,0.0145569,
6534,-0.0213623,0.0145996,
6536,-0.0146484,0.0145142,
6538,0.00854492,0.0144531,
6540,-0.020752,0.0144714,
6542,-0.00976563,0.0145508,
6544,0.00671387,0.0145752,
6546,-0.00793457,0.0145691,
6548,-0.00671387,0.0144043,
6550,-0.0366211,0.0147217,
6552,-0.0372314,0.0149414,
6554,-0.00793457,0.0149048,
6556,-0.00976563,0.0149048,
6558,0.0177002,0.0149658,
6560,-0.0183105,0.0150513,
6562,0,0.0149536,
6564,0.00793457,0.0149719,
6566,0.0146484,0.0150085,
6568,-0.00549316,0.0149475,
6570,-0.00244141,0.0148499,
6572,0.00671387,0.0148193,
6574,-0.0158691,0.0147827,
6576,0.0280762,0.0146667,
6578,0.0372314,0.0147217,
6580,0.0164795,0.0148804,
6582,0.0146484,0.0148437,
6584,0.00976563,0.0145081,
6586,0.0292969,0.0146973,
6588,-0.00671387,0.0145691,
6590,-0.0158691,0.0145996,
6592,0.000610352,0.0145264,
6594,-0.0360107,0.0148621,
6596,-0.0274658,0.0149902,
6598,-0.0201416,0.0151428,
6600,-0.045166,0.0155334,
6602,-0.0189209,0.0155212,
6604,-0.0268555,0.0155273,
6606,-0.010376,0.0154541,
6608,-0.0134277,0.0154968,
6610,-0.000610352,0.0153137,
6612,-0.0140381,0.0153381,
6614,0.012207,0.0154541,
6616,0.000610352,0.0151062,
6618,0.0177002,0.0152039,
6620,0.00305176,0.01521,
6622,0.010376,0.0150391,
6624,-0.0012207,0.0149109,
6626,-0.00854492,0.0147705,
6628,0.00488281,0.0146973,
6630,-0.00549316,0.0147095,
6632,0.00915527,0.0146667,
6634,0.00610352,0.014502,
6636,-0.0012207,0.0143494,
6638,-0.00610352,0.0142883,
6640,-0.00976563,0.0143311,
6642,0.0183105,0.0144409,
6644,0.00549316,0.0144348,
6646,0.00488281,0.014447,
6648,0.032959,0.0144104,
6650,-0.0250244,0.0146484,
6652,0.0219727,0.0147522,
6654,-0.00976563,0.0147156,
6656,-0.0012207,0.0145569,
6658,0.00183105,0.0145447,
6660,-0.0158691,0.0147034,
6662,-0.00793457,0.0147339,
6664,0.00976563,0.0145081,
6666,0.0244141,0.0146606,
6668,-0.0128174,0.0146606,
6670,-0.0115967,0.0145569,
6672,0.0109863,0.0146606,
6674,0.010376,0.0145508,
6676,0.0213623,0.0146606,
6678,-0.0305176,0.014801,
6680,-0.0238037,0.0148437,
6682,0.000610352,0.01474,
6684,-0.00854492,0.014624,
6686,-0.0195313,0.014624,
6688,-0.0140381,0.01474,
6690,-0.0146484,0.0145996,
6692,-0.00854492,0.0146179,
6694,-0.0158691,0.0144043,
6696,-0.0152588,0.0144592,
6698,-0.0128174,0.0144104,
6700,-0.0146484,0.0144104,
6702,0.0311279,0.0145569,
6704,0.00976563,0.0145203,
6706,-0.0140381,0.0144287,
6708,0.022583,0.0145569,
6710,-0.00793457,0.0144958,
6712,0.012207,0.0144714,
6714,0.00183105,0.01427,
6716,-0.000610352,0.0141907,
6718,0.0189209,0.0140686,
6720,-0.0152588,0.0142151,
6722,-0.00976563,0.0142822,
6724,0.0164795,0.0140625,
6726,0.0152588,0.0139893,
6728,-0.010376,0.0140259,
6730,-0.0109863,0.0137878,
6732,0.00976563,0.0137756,
6734,-0.0115967,0.013678,
6736,-0.0354004,0.0138855,
6738,-0.012207,0.0139221,
6740,0.0201416,0.013916,
6742,-0.012207,0.0139404,
6744,0.0384521,0.0142578,
6746,0.00488281,0.0142273,
6748,-0.00671387,0.0142273,
6750,-0.0177002,0.0140381,
6752,0.0268555,0.0139343,
6754,-0.000610352,0.0138611,
6756,-0.00915527,0.013855,
6758,-0.00793457,0.0137573,
6760,-0.0201416,0.0137756,
6762,0.00488281,0.0138245,
6764,-0.0262451,0.0140076,
6766,-0.0146484,0.0140076,
6768,-0.0158691,0.0141113,
6770,-0.0115967,0.0142029,
6772,-0.00305176,0.0141663,
6774,-0.012207,0.0141296,
6776,-0.022583,0.0140747,
6778,-0.00427246,0.0137451,
6780,0.0360107,0.0139404,
6782,-0.0201416,0.0139954,
6784,0,0.0138977,
6786,0.00976563,0.0137024,
6788,0.00366211,0.0136719,
6790,-0.00793457,0.0135925,
6792,-0.00427246,0.0136292,
6794,-0.0408936,0.013678,
6796,0.00549316,0.0134583,
6798,0,0.0132568,
6800,-0.00549316,0.0128601,
6802,0.0354004,0.0130249,
6804,-0.0152588,0.0129089,
6806,-0.0256348,0.0130615,
6808,0.0299072,0.0132263,
6810,0.0158691,0.0133789,
6812,0.0164795,0.0134033,
6814,0.0012207,0.0132935,
6816,-0.00610352,0.0133484,
6818,-0.0140381,0.0133118,
6820,0,0.0132813,
6822,0.0317383,0.0134949,
6824,-0.0372314,0.013855,
6826,-0.0274658,0.0140442,
6828,0.0140381,0.0141357,
6830,0.0366211,0.014447,
6832,0.000610352,0.0143616,
6834,-0.00183105,0.0143188,
6836,0.0134277,0.0144409,
6838,0.0164795,0.0145447,
6840,0.0390625,0.0148376,
6842,-0.012207,0.0147766,
6844,-0.0268555,0.0149902,
6846,-0.022583,0.0151672,
6848,-0.012207,0.0149597,
6850,-0.00671387,0.0147766,
6852,-0.022583,0.0147827,
6854,-0.0372314,0.0150574,
6856,0.0164795,0.01521,
6858,-0.00854492,0.0152771,
6860,-0.00244141,0.0151428,
6862,0.00671387,0.0151306,
6864,0.00793457,0.0151123,
6866,-0.00427246,0.0149109,
6868,-0.0189209,0.0149719,
6870,-0.0170898,0.0150269,
6872,-0.00915527,0.0150085,
6874,-0.0408936,0.0153137,
6876,-0.0195313,0.0152954,
6878,0.0170898,0.0151611,
6880,-0.0183105,0.0151062,
6882,-0.0402832,0.0155029,
6884,0.000610352,0.0154236,
6886,-0.00610352,0.0152893,
6888,0.0140381,0.0152893,
6890,-0.00549316,0.0151978,
6892,0.0012207,0.0151245,
6894,-0.0109863,0.0150757,
6896,-0.0152588,0.0150757,
6898,0.0109863,0.0150574,
6900,0.0158691,0.0150696,
6902,-0.0189209,0.0149475,
6904,0.0115967,0.0149658,
6906,0.00671387,0.0148926,
6908,0.00244141,0.0146912,
6910,-0.0189209,0.014801,
6912,0.00549316,0.0147339,
6914,0.00793457,0.0147949,
6916,-0.0213623,0.0150024,
6918,0.00976563,0.0149109,
6920,0,0.0147583,
6922,-0.0201416,0.0148621,
6924,-0.00915527,0.0147888,
6926,-0.0189209,0.0148254,
6928,-0.00244141,0.0147461,
6930,-0.0146484,0.0147827,
6932,-0.0158691,0.0148437,
6934,-0.0219727,0.0149475,
6936,0.00183105,0.0146118,
6938,0.00305176,0.0145203,
6940,0.0134277,0.0144531,
6942,0.0213623,0.0145447,
6944,0.00671387,0.0142273,
6946,-0.00305176,0.014209,
6948,0.0140381,0.0142822,
6950,-0.0189209,0.0142944,
6952,-0.00488281,0.0140747,
6954,0.000610352,0.0140747,
6956,-0.00427246,0.0140259,
6958,-0.0299072,0.0142456,
6960,-0.0164795,0.014209,
6962,0,0.0141602,
6964,0.010376,0.0140015,
6966,-0.0189209,0.0140442,
6968,-0.0280762,0.0141663,
6970,0.00671387,0.0141174,
6972,-0.00488281,0.0141357,
6974,-0.0164795,0.0141785,
6976,-0.0305176,0.0142578,
6978,-0.0152588,0.0143677,
6980,-0.00915527,0.0140991,
6982,-0.00305176,0.0139282,
6984,0,0.0139282,
6986,0.0286865,0.0141174,
6988,0.0201416,0.0142822,
6990,-0.0427246,0.0146301,
6992,0.00915527,0.014679,
6994,0.0109863,0.0143799,
6996,-0.00305176,0.0143555,
6998,-0.022583,0.0145813,
7000,-0.0323486,0.0148499,
7002,0.012207,0.0146179,
7004,-0.0164795,0.0146301,
7006,-0.0256348,0.0146301,
7008,-0.0238037,0.0145691,
7010,0.0183105,0.0145935,
7012,0.0115967,0.0145447,
7014,-0.0109863,0.0146423,
7016,-0.00549316,0.0146362,
7018,0.032959,0.0148254,
7020,0.0109863,0.0149353,
7022,0.00671387,0.0146851,
7024,-0.0152588,0.0144653,
7026,0.00305176,0.0142212,
7028,0.00976563,0.0141785,
7030,-0.00854492,0.0138977,
7032,-0.0189209,0.0140808,
7034,-0.0189209,0.0142517,
7036,-0.0341797,0.0144592,
7038,-0.0286865,0.0145813,
7040,0.0250244,0.0144409,
7042,0.0115967,0.0144348,
7044,-0.0201416,0.0143677,
7046,-0.022583,0.0143677,
7048,0.00244141,0.01427,
7050,0.0189209,0.0143921,
7052,0.00366211,0.0142029,
7054,-0.0268555,0.0140991,
7056,-0.0201416,0.0141357,
7058,-0.0170898,0.0142212,
7060,-0.0195313,0.0143921,
7062,-0.000610352,0.0143311,
7064,-0.0360107,0.0146118,
7066,-0.0195313,0.0147644,
7068,-0.0012207,0.0145874,
7070,-0.00244141,0.0144409,
7072,-0.022583,0.0145752,
7074,0,0.0141663,
7076,-0.00915527,0.0140625,
7078,0.00793457,0.0139709,
7080,0.00488281,0.0138367,
7082,-0.012207,0.0135559,
7084,-0.00366211,0.0135864,
7086,0.00549316,0.0135803,
7088,0.00671387,0.0135071,
7090,0.00549316,0.0135071,
7092,0,0.0134949,
7094,0.0146484,0.0135315,
7096,-0.0152588,0.0135315,
7098,0.00793457,0.013501,
7100,0,0.0133423,
7102,0.0158691,0.0133118,
7104,-0.0195313,0.0133911,
7106,-0.0158691,0.0134827,
7108,0.0140381,0.0135986,
7110,-0.0201416,0.0136108,
7112,-0.00305176,0.0135864,
7114,-0.0183105,0.0136902,
7116,-0.00610352,0.0135376,
7118,0.00976563,0.0135376,
7120,-0.0189209,0.0137268,
7122,0.0134277,0.0136597,
7124,-0.00732422,0.0136414,
7126,-0.0115967,0.0135681,
7128,0.00976563,0.0136414,
7130,-0.00976563,0.0135925,
7132,-0.00549316,0.0134888,
7134,-0.012207,0.0133911,
7136,-0.0189209,0.013562,
7138,0.0170898,0.0137024,
7140,-0.0189209,0.0137573,
7142,-0.0360107,0.0139038,
7144,0.00305176,0.0138672,
7146,0.000610352,0.0138428,
7148,0.00854492,0.0137878,
7150,-0.00549316,0.0136536,
7152,0.00854492,0.0136902,
7154,0.0128174,0.0138123,
7156,-0.000610352,0.0137756,
7158,-0.0146484,0.013623,
7160,0.0128174,0.0135864,
7162,0.0238037,0.0138245,
7164,-0.0268555,0.0139893,
7166,0.00976563,0.0138977,
7168,0.0177002,0.0137939,
7170,-0.00854492,0.0138123,
7172,-0.0231934,0.0139954,
7174,0.00488281,0.0138794,
7176,0.0146484,0.0137207,
7178,-0.0195313,0.0137634,
7180,-0.0170898,0.0138428,
7182,-0.00854492,0.0138977,
7184,-0.0250244,0.0141479,
7186,-0.00732422,0.0139343,
7188,0.0109863,0.0138428,
7190,-0.0140381,0.0135559,
7192,-0.0299072,0.0137634,
7194,-0.00976563,0.0137512,
7196,-0.0152588,0.0138733,
7198,0.00305176,0.013678,
7200,0.0213623,0.0135681,
7202,-0.0341797,0.0137878,
7204,-0.0445557,0.0140686,
7206,0.00427246,0.013855,
7208,0.0189209,0.0138062,
7210,0.00671387,0.0136902,
7212,0.00366211,0.0136108,
7214,-0.0109863,0.0136108,
7216,0.00244141,0.0135803,
7218,0.00976563,0.0133484,
7220,0.0134277,0.0133728,
7222,-0.00244141,0.0133301,
7224,-0.0183105,0.0133606,
7226,0.00976563,0.0134277,
7228,-0.0140381,0.0134705,
7230,-0.00915527,0.0134766,
7232,-0.00732422,0.0133606,
7234,-0.032959,0.013501,
7236,-0.0189209,0.0133484,
7238,-0.00427246,0.0131042,
7240,-0.0012207,0.0128662,
7242,0.00305176,0.0127808,
7244,-0.0299072,0.0128784,
7246,-0.00915527,0.0127441,
7248,0.00305176,0.0127502,
7250,-0.0128174,0.0126892,
7252,0.00549316,0.0127075,
7254,-0.00915527,0.0125305,
7256,0.00793457,0.0124084,
7258,-0.00854492,0.012323,
7260,0.0140381,0.0122681,
7262,0.00427246,0.0123047,
7264,0.00427246,0.0119873,
7266,-0.00366211,0.0118286,
7268,-0.0115967,0.0119324,
7270,-0.00305176,0.0119385,
7272,0.0012207,0.0117249,
7274,-0.0262451,0.0119873,
7276,-0.00610352,0.0119568,
7278,-0.0128174,0.0120056,
7280,-0.0012207,0.011969,
7282,-0.00732422,0.0119202,
7284,0.00366211,0.0119202,
7286,0.00915527,0.0119568,
7288,0.00183105,0.011908,
7290,0.0170898,0.0120239,
7292,-0.00183105,0.0120422,
7294,0.00732422,0.011969,
7296,0.00732422,0.0118896,
7298,-0.0128174,0.0119385,
7300,-0.0152588,0.0120911,
7302,0.00793457,0.0120117,
7304,-0.0189209,0.0120056,
7306,-0.00427246,0.0118896,
7308,-0.0317383,0.0120667,
7310,-0.0152588,0.0120178,
7312,-0.00976563,0.012085,
7314,-0.0183105,0.012085,
7316,-0.0134277,0.0121582,
7318,0.00854492,0.012146,
7320,-0.0390625,0.0123474,
7322,-0.00976563,0.0123108,
7324,-0.012207,0.0123596,
7326,-0.00305176,0.0122742,
7328,0.00427246,0.0122192,
7330,0.00183105,0.0121399,
7332,0.00915527,0.0121765,
7334,-0.00183105,0.0120728,
7336,0.0115967,0.0119995,
7338,0.00915527,0.0119202,
7340,0.00427246,0.0117737,
7342,-0.00915527,0.0115051,
7344,0.0109863,0.0115845,
7346,0.0012207,0.0115906,
7348,-0.00427246,0.0115479,
7350,-0.00732422,0.0115662,
7352,-0.020752,0.0116882,
7354,0.00854492,0.0116455,
7356,0.0268555,0.011908,
7358,-0.00244141,0.0117859,
7360,-0.00305176,0.0116882,
7362,0.000610352,0.0114563,
7364,0.0140381,0.0113281,
7366,0.0146484,0.011377,
7368,0.00915527,0.0112915,
7370,0.00671387,0.0112732,
7372,0.0109863,0.0111511,
7374,-0.00488281,0.0111511,
7376,-0.00427246,0.0110474,
7378,-0.00183105,0.0108704,
7380,-0.020752,0.010907,
7382,-0.00183105,0.0108398,
7384,-0.0311279,0.0109009,
7386,-0.0286865,0.0111145,
7388,-0.0134277,0.0111389,
7390,-0.0268555,0.0112671,
7392,-0.0500488,0.0114685,
7394,-0.00671387,0.011438,
7396,-0.0128174,0.0114136,
7398,-0.0195313,0.0115784,
7400,-0.0195313,0.0115601,
7402,-0.0177002,0.0113953,
7404,-0.0195313,0.011145,
7406,-0.0012207,0.0111145,
7408,-0.00366211,0.0109619,
7410,-0.0158691,0.0110535,
7412,-0.00244141,0.0110413,
7414,-0.00976563,0.0110291,
7416,0.0109863,0.0111145,
7418,-0.012207,0.0111389,
7420,0.00366211,0.0110413,
7422,-0.00610352,0.0110779,
7424,0.020752,0.0111023,
7426,0.0213623,0.0112183,
7428,-0.00793457,0.0111572,
7430,-0.00671387,0.0111328,
7432,0.0244141,0.0113037,
7434,0.010376,0.0110779,
7436,0,0.0108887,
7438,-0.00854492,0.0109314,
7440,-0.00732422,0.0109924,
7442,-0.00305176,0.0109924,
7444,-0.000610352,0.0106995,
7446,0.00976563,0.0107056,
7448,-0.0360107,0.0110352,
7450,-0.0158691,0.0110657,
7452,-0.0012207,0.0110229,
7454,-0.0250244,0.0111816,
7456,-0.0231934,0.0113342,
7458,-0.0170898,0.0114197,
7460,-0.0231934,0.0115112,
7462,-0.0286865,0.0117554,
7464,-0.0115967,0.0118286,
7466,-0.010376,0.0118958,
7468,-0.0231934,0.0120117,
7470,-0.00610352,0.0120422,
7472,0.00305176,0.0120605,
7474,-0.0250244,0.0120483,
7476,0.00305176,0.0120178,
7478,-0.00244141,0.0119141,
7480,-0.00366211,0.0119385,
7482,0.0012207,0.0118774,
7484,0.00488281,0.0118896,
7486,0.00915527,0.0118896,
7488,0.00305176,0.0119019,
7490,-0.00488281,0.0117798,
7492,-0.00183105,0.0117798,
7494,0.00671387,0.0117737,
7496,0.0012207,0.0117126,
7498,-0.012207,0.0117065,
7500,0.00305176,0.0115845,
7502,0.0213623,0.0117188,
7504,0.0115967,0.0116455,
7506,0.00366211,0.0116394,
7508,-0.010376,0.0114258,
7510,0.00854492,0.0113586,
7512,0.0158691,0.0114197,
7514,-0.010376,0.0113403,
7516,-0.0360107,0.0115662,
7518,0,0.0114807,
7520,-0.00366211,0.0111267,
7522,-0.0164795,0.0111938,
7524,-0.0323486,0.0113953,
7526,0.000610352,0.0113708,
7528,0.00183105,0.0113464,
7530,-0.012207,0.0114502,
7532,-0.00793457,0.011438,
7534,-0.00305176,0.0114502,
7536,-0.00732422,0.0114075,
7538,-0.00610352,0.011377,
7540,0.00854492,0.0114197,
7542,-0.00549316,0.0113831,
7544,-0.0183105,0.0114563,
7546,0.00366211,0.0114807,
7548,-0.00976563,0.0115356,
7550,-0.00976563,0.0115601,
7552,-0.000610352,0.0113586,
7554,0.00305176,0.0113037,
7556,-0.0109863,0.011145,
7558,-0.00976563,0.0112183,
7560,0.00732422,0.011261,
7562,-0.00183105,0.0112732,
7564,-0.0152588,0.0112854,
7566,0.000610352,0.011145,
7568,-0.0231934,0.0112854,
7570,-0.0201416,0.0114197,
7572,-0.0274658,0.0115845,
7574,0.00793457,0.011615,
7576,0.0219727,0.011792,
7578,0.00793457,0.011853,
7580,0.00732422,0.0117188,
7582,0.0372314,0.0120728,
7584,0.0201416,0.0119629,
7586,0.010376,0.0117798,
7588,0.00671387,0.0117126,
7590,-0.00366211,0.0114807,
7592,-0.0335693,0.0113159,
7594,-0.0158691,0.0114075,
7596,-0.0213623,0.0114929,
7598,-0.0402832,0.0117004,
7600,-0.0378418,0.0118835,
7602,-0.0170898,0.0118774,
7604,-0.00610352,0.0117432,
7606,0.00549316,0.0117859,
7608,-0.00793457,0.0118286,
7610,-0.00793457,0.0117493,
7612,-0.00183105,0.0117432,
7614,0.0152588,0.0117981,
7616,-0.00427246,0.011731,
7618,0.0146484,0.0117554,
7620,0.00427246,0.0117615,
7622,-0.0164795,0.0118652,
7624,-0.00610352,0.0117188,
7626,0.0115967,0.0116211,
7628,-0.010376,0.0116455,
7630,-0.0201416,0.0117798,
7632,0.00305176,0.0115662,
7634,-0.00732422,0.0115356,
7636,-0.00305176,0.0115662,
7638,0.00366211,0.0115173,
7640,-0.0109863,0.011554,
7642,-0.00793457,0.0116028,
7644,0.00488281,0.0116455,
7646,0.0134277,0.0116821,
7648,-0.00610352,0.0113831,
7650,-0.00549316,0.0112793,
7652,-0.00427246,0.0113098,
7654,-0.00427246,0.0111023,
7656,0.0140381,0.0110107,
7658,0.00793457,0.0109192,
7660,0.0012207,0.0106995,
7662,-0.0231934,0.0106445,
7664,0.0012207,0.0105408,
7666,0.0012207,0.0104492,
7668,0.000610352,0.0102234,
7670,-0.00976563,0.01026,
7672,-0.0158691,0.0103882,
7674,-0.0134277,0.0102722,
7676,0.0109863,0.0103516,
7678,0.0250244,0.0105774,
7680,-0.0366211,0.010907,
7682,-0.0213623,0.0111084,
7684,-0.0115967,0.0111755,
7686,0.0012207,0.0110962,
7688,-0.010376,0.0111694,
7690,-0.0250244,0.0113708,
7692,-0.0128174,0.0114807,
7694,0.00488281,0.0114624,
7696,-0.0109863,0.0115601,
7698,-0.0286865,0.0117249,
7700,0.00488281,0.0117432,
7702,0.0134277,0.0116638,
7704,-0.0115967,0.0116638,
7706,-0.0402832,0.01203,
7708,0.00244141,0.0119507,
7710,-0.0146484,0.0120117,
7712,0.020752,0.0120605,
7714,-0.0183105,0.0121399,
7716,0.00244141,0.0118042,
7718,0.0201416,0.0120056,
7720,-0.0140381,0.0121094,
7722,-0.00183105,0.0119629,
7724,0.00427246,0.0116821,
7726,0.010376,0.0117798,
7728,-0.0146484,0.011908,
7730,-0.00915527,0.0118774,
7732,-0.00366211,0.0118347,
7734,-0.00427246,0.0118469,
7736,0.0250244,0.0120239,
7738,-0.0152588,0.0121155,
7740,-0.0134277,0.0121643,
7742,-0.00244141,0.0121338,
7744,0.00549316,0.0120056,
7746,0.0195313,0.0121643,
7748,-0.0262451,0.0123291,
7750,-0.00610352,0.0122925,
7752,-0.010376,0.0123901,
7754,-0.0189209,0.0125488,
7756,0.0177002,0.012616,
7758,-0.00427246,0.012561,
7760,-0.00488281,0.0125366,
7762,-0.0213623,0.0127319,
7764,0.00427246,0.0126221,
7766,-0.00488281,0.0126648,
7768,-0.0335693,0.0127686,
7770,-0.00610352,0.0126282,
7772,-0.0109863,0.0124634,
7774,-0.0341797,0.0127258,
7776,-0.0140381,0.0126465,
7778,-0.0219727,0.0127869,
7780,-0.00732422,0.0127869,
7782,-0.0177002,0.0125916,
7784,-0.00183105,0.0124084,
7786,0.0183105,0.0124878,
7788,-0.00793457,0.0125,
7790,0.00854492,0.0125488,
7792,-0.00427246,0.0122559,
7794,0.000610352,0.0121033,
7796,0.022583,0.0121155,
7798,0.00732422,0.0117859,
7800,-0.0146484,0.011554,
7802,-0.0140381,0.0115234,
7804,0.0115967,0.0115784,
7806,0.00244141,0.0115479,
7808,-0.00610352,0.0115295,
7810,-0.0244141,0.0116943,
7812,0.00549316,0.011731,
7814,0.0213623,0.011792,
7816,-0.000610352,0.0117554,
7818,-0.0177002,0.0117859,
7820,-0.0250244,0.0119934,
7822,0.0183105,0.0120117,
7824,0.00366211,0.0119873,
7826,-0.0177002,0.0120483,
7828,-0.000610352,0.0119507,
7830,-0.00793457,0.0118286,
7832,0.00671387,0.0118652,
7834,0.00793457,0.0118713,
7836,-0.0170898,0.0120117,
7838,0.0219727,0.0121948,
7840,-0.00488281,0.0121338,
7842,0.00488281,0.0121033,
7844,-0.012207,0.0121765,
7846,-0.00427246,0.012085,
7848,-0.0170898,0.0121948,
7850,0.00610352,0.0122009,
7852,-0.0012207,0.0121704,
7854,-0.0170898,0.0122986,
7856,-0.0524902,0.0126831,
7858,-0.0146484,0.0127502,
7860,-0.00183105,0.0127563,
7862,-0.0286865,0.0128113,
7864,-0.0372314,0.0131714,
7866,-0.00732422,0.0132324,
7868,-0.0219727,0.013446,
7870,0.00854492,0.0134338,
7872,0.0238037,0.0135132,
7874,-0.0292969,0.0136719,
7876,0.0140381,0.0137024,
7878,-0.00305176,0.0134827,
7880,0.00976563,0.0132141,
7882,-0.0335693,0.0133362,
7884,-0.00244141,0.0132446,
7886,-0.0152588,0.013385,
7888,-0.0341797,0.013623,
7890,-0.00671387,0.0134399,
7892,-0.0201416,0.0135132,
7894,-0.020752,0.0136719,
7896,-0.0158691,0.0137207,
7898,-0.0213623,0.0136475,
7900,-0.0201416,0.0138,
7902,-0.00488281,0.0137146,
7904,-0.012207,0.0137207,
7906,0.0128174,0.013446,
7908,-0.0152588,0.0135742,
7910,0.00793457,0.0135071,
7912,-0.00732422,0.0133728,
7914,0.00976563,0.0132874,
7916,0.020752,0.0134705,
7918,0.00305176,0.0132996,
7920,-0.0164795,0.013324,
7922,-0.0109863,0.0134155,
7924,-0.0177002,0.0135498,
7926,-0.00183105,0.0134644,
7928,0.00610352,0.0133789,
7930,-0.0274658,0.013562,
7932,-0.0128174,0.0136536,
7934,-0.0195313,0.0138062,
7936,0.00915527,0.0136475,
7938,0.0128174,0.013623,
7940,0.0231934,0.0137207,
7942,-0.0231934,0.0139282,
7944,-0.000610352,0.0138794,
7946,0.0195313,0.0138794,
7948,0.00671387,0.0136841,
7950,-0.010376,0.0137268,
7952,0.0213623,0.0138367,
7954,-0.00244141,0.0136719,
7956,0.0164795,0.0136597,
7958,-0.0177002,0.0137939,
7960,0.00671387,0.0138123,
7962,0.00732422,0.0136719,
7964,0.0195313,0.0138245,
7966,-0.0262451,0.0140381,
7968,-0.0231934,0.0139343,
7970,-0.0201416,0.0140747,
7972,-0.00488281,0.0140137,
7974,-0.0213623,0.0138855,
7976,-0.0457764,0.0142029,
7978,-0.032959,0.0143127,
7980,0.0170898,0.0144104,
7982,-0.0128174,0.0143616,
7984,-0.00671387,0.0144104,
7986,-0.00732422,0.0143005,
7988,0.00915527,0.0143127,
7990,-0.010376,0.0143311,
7992,0.00366211,0.014325,
7994,0.0152588,0.0144714,
7996,-0.0189209,0.0144348,
7998,-0.00488281,0.0144104,
8000,-0.00549316,0.0143188,
8002,0.0177002,0.0143555,
8004,-0.00610352,0.0143005,
8006,0.00671387,0.0143433,
8008,-0.0219727,0.014502,
8010,-0.010376,0.0143616,
8012,0.0183105,0.0144897,
8014,0.0170898,0.014447,
8016,-0.000610352,0.014447,
8018,-0.0457764,0.0147278,
8020,-0.0140381,0.0146179,
8022,0.00610352,0.0144958,
8024,-0.0164795,0.014624,
8026,-0.0213623,0.0146606,
8028,-0.00793457,0.0147339,
8030,0.0195313,0.0148499,
8032,-0.0244141,0.0150269,
8034,-0.0280762,0.0152283,
8036,0.00671387,0.0151245,
8038,0.00671387,0.0149719,
8040,0.000610352,0.0149292,
8042,-0.00488281,0.0149292,
8044,-0.0469971,0.0152771,
8046,-0.0128174,0.0153625,
8048,-0.0280762,0.0154724,
8050,-0.00976563,0.015509,
8052,-0.0183105,0.0156799,
8054,0,0.015509,
8056,-0.00610352,0.0150452,
8058,-0.0128174,0.0150269,
8060,0.0213623,0.0152222,
8062,-0.00488281,0.0149841,
8064,0.000610352,0.0146179,
8066,-0.0012207,0.0145569,
8068,-0.00366211,0.0143738,
8070,0.00244141,0.0143127,
8072,-0.0189209,0.0142639,
8074,-0.00915527,0.0140625,
8076,0.012207,0.0140442,
8078,-0.00732422,0.0140869,
8080,-0.0012207,0.0140015,
8082,-0.00305176,0.0136963,
8084,0.00427246,0.0137146,
8086,0.0128174,0.0136902,
8088,-0.0115967,0.0134644,
8090,0.0140381,0.0135376,
8092,-0.0183105,0.0135193,
8094,-0.0238037,0.0135498,
8096,0.0244141,0.0136353,
8098,0.0256348,0.013678,
8100,-0.0213623,0.0136902,
8102,-0.0201416,0.0138428,
8104,-0.012207,0.0138428,
8106,0.00793457,0.0137939,
8108,-0.0219727,0.0138611,
8110,-0.0256348,0.0140381,
8112,-0.00732422,0.0140381,
8114,-0.0402832,0.0143433,
8116,-0.0219727,0.0143555,
8118,-0.0244141,0.0145691,
8120,-0.000610352,0.0144104,
8122,-0.0128174,0.0144287,
8124,-0.00915527,0.0143433,
8126,0.000610352,0.0143311,
8128,0.0012207,0.0142822,
8130,-0.0134277,0.0141418,
8132,0.00183105,0.014032,
8134,-0.00854492,0.0139221,
8136,-0.00610352,0.0138916,
8138,0.000610352,0.0137695,
8140,-0.00854492,0.013623,
8142,-0.00610352,0.0134521,
8144,0.0158691,0.0136047,
8146,0,0.0134094,
8148,-0.0195313,0.0135376,
8150,-0.00671387,0.013501,
8152,0.012207,0.0134094,
8154,-0.0183105,0.0135681,
8156,0.00366211,0.0134399,
8158,-0.0177002,0.0134399,
8160,-0.00488281,0.0134216,
8162,0.00183105,0.0133667,
8164,0.00183105,0.0131897,
8166,0.00976563,0.0130249,
8168,-0.0109863,0.0129028,
8170,-0.00549316,0.0127563,
8172,0.00732422,0.0127808,
8174,-0.00915527,0.0126587,
8176,-0.0360107,0.012561,
8178,-0.0164795,0.0123962,
8180,-0.0134277,0.0123596,
8182,-0.0238037,0.0124695,
8184,-0.0250244,0.0126526,
8186,-0.0286865,0.0128662,
8188,0.00854492,0.0128601,
8190,0.0012207,0.0127686,
8192,-0.0341797,0.0130737,
8194,0.0134277,0.0130554,
8196,0.0195313,0.0130615,
8198,-0.00671387,0.0130798,
8200,-0.0183105,0.013208,
8202,0.0195313,0.0132263,
8204,0.0158691,0.013324,
8206,-0.0170898,0.0134277,
8208,-0.0268555,0.0134766,
8210,0.00976563,0.0134705,
8212,0.00610352,0.0133484,
8214,-0.0213623,0.0133911,
8216,0.000610352,0.0133911,
8218,-0.0128174,0.0130615,
8220,0.00915527,0.0130127,
8222,0.00244141,0.0129761,
8224,-0.012207,0.0129333,
8226,0.00854492,0.0128052,
8228,0.00183105,0.0127441,
8230,-0.010376,0.0126526,
8232,0.0012207,0.0124207,
8234,0.0128174,0.0122681,
8236,-0.000610352,0.012207,
8238,-0.00915527,0.0122314,
8240,-0.0158691,0.012384,
8242,-0.00427246,0.0123779,
8244,-0.0158691,0.0120667,
8246,-0.00610352,0.0119995,
8248,-0.00915527,0.0118103,
8250,-0.0213623,0.0119263,
8252,-0.0152588,0.0118958,
8254,-0.0292969,0.0121887,
8256,-0.00488281,0.0121765,
8258,0.00305176,0.0120789,
8260,-0.012207,0.0119873,
8262,-0.00610352,0.0119995,
8264,-0.0146484,0.0121399,
8266,0.00366211,0.0121643,
8268,-0.0109863,0.0122375,
8270,0.010376,0.0123169,
8272,-0.00305176,0.0121582,
8274,-0.0286865,0.0123535,
8276,0.00244141,0.0122559,
8278,-0.00427246,0.0122253,
8280,-0.00244141,0.0122375,
8282,-0.0238037,0.0124451,
8284,-0.022583,0.0126282,
8286,-0.0115967,0.012616,
8288,0.00305176,0.0125305,
8290,-0.022583,0.012616,
8292,-0.00427246,0.0124756,
8294,-0.00732422,0.0123108,
8296,0.00793457,0.012146,
8298,0.032959,0.0122192,
8300,0.020752,0.0122131,
8302,0.00244141,0.0120361,
8304,-0.00671387,0.0119812,
8306,0.0482178,0.012384,
8308,0.0341797,0.0125061,
8310,-0.000610352,0.0122559,
8312,-0.0170898,0.0123535,
8314,-0.0274658,0.0122253,
8316,-0.0341797,0.0123474,
8318,-0.00549316,0.0121582,
8320,0.00915527,0.0122437,
8322,-0.0476074,0.0125916,
8324,-0.0195313,0.0126953,
8326,-0.00732422,0.0127625,
8328,-0.00732422,0.0128235,
8330,-0.0317383,0.0130066,
8332,0.0164795,0.0131531,
8334,0.00549316,0.0131226,
8336,-0.0140381,0.0132019,
8338,0.0231934,0.0134277,
8340,0.000610352,0.0133484,
8342,0.00244141,0.0133118,
8344,0.0012207,0.0131653,
8346,-0.00488281,0.0132141,
8348,-0.00305176,0.0130493,
8350,-0.0146484,0.0131287,
8352,-0.00671387,0.0130737,
8354,-0.0323486,0.0132141,
8356,-0.0231934,0.0134094,
8358,-0.0280762,0.0135132,
8360,-0.0201416,0.0136658,
8362,-0.000610352,0.0136536,
8364,-0.00183105,0.0136536,
8366,-0.0109863,0.0136658,
8368,0.0128174,0.0136841,
8370,0.0164795,0.0137939,
8372,0.0177002,0.0138977,
8374,-0.020752,0.0140137,
8376,0.0311279,0.0139648,
8378,0.03479,0.0141479,
8380,-0.00915527,0.0141052,
8382,0.00244141,0.0138916,
8384,0.00854492,0.0137268,
8386,-0.00305176,0.0134705,
8388,-0.0219727,0.0136047,
8390,0.0152588,0.0137451,
8392,-0.00549316,0.0134583,
8394,-0.0366211,0.0136902,
8396,-0.0219727,0.0137146,
8398,-0.0152588,0.0138,
8400,-0.010376,0.0137207,
8402,-0.0231934,0.0137573,
8404,-0.0292969,0.0138916,
8406,0.00549316,0.0137756,
8408,0.0146484,0.0136536,
8410,0.0146484,0.0137024,
8412,-0.0158691,0.0138,
8414,-0.00793457,0.0136658,
8416,0.0280762,0.0139404,
8418,-0.00732422,0.0138855,
8420,-0.0244141,0.0140381,
8422,-0.0152588,0.0141663,
8424,-0.0292969,0.0143372,
8426,-0.022583,0.0144775,
8428,-0.00976563,0.0145569,
8430,-0.0109863,0.014563,
8432,-0.00366211,0.0145874,
8434,-0.0115967,0.0145752,
8436,-0.000610352,0.0145752,
8438,-0.000610352,0.0144897,
8440,-0.00244141,0.0143555,
8442,-0.012207,0.0144348,
8444,-0.010376,0.0143799,
8446,0.00366211,0.0143555,
8448,0.010376,0.0143677,
8450,0.00183105,0.0141724,
8452,0.00366211,0.0140564,
8454,0.00732422,0.0138367,
8456,0.0152588,0.0139404,
8458,-0.0268555,0.0141785,
8460,0.00854492,0.0141418,
8462,0.00183105,0.0140991,
8464,-0.022583,0.0141785,
8466,-0.0274658,0.0144165,
8468,-0.0219727,0.0145264,
8470,-0.0158691,0.0145813,
8472,-0.012207,0.0146729,
8474,-0.022583,0.0146118,
8476,-0.0012207,0.0145996,
8478,-0.00732422,0.0146301,
8480,-0.0134277,0.01474,
8482,-0.00854492,0.0145874,
8484,-0.0146484,0.0145081,
8486,-0.00976563,0.0144897,
8488,-0.00732422,0.0145325,
8490,0.00305176,0.0143372,
8492,-0.020752,0.014502,
8494,-0.00976563,0.0145264,
8496,0.0140381,0.0145874,
8498,0.0012207,0.01427,
8500,-0.00854492,0.0141479,
8502,-0.00915527,0.0142151,
8504,-0.00488281,0.0141968,
8506,-0.000610352,0.0137207,
8508,-0.0195313,0.0135742,
8510,-0.0213623,0.0137817,
8512,-0.00915527,0.0137024,
8514,-0.0140381,0.0135681,
8516,0,0.0132263,
8518,0.0012207,0.0131836,
8520,-0.00549316,0.013147,
8522,0.0158691,0.0128296,
8524,0.00793457,0.0127136,
8526,0.0201416,0.0128418,
8528,-0.00793457,0.0128479,
8530,-0.00610352,0.0125916,
8532,0.0164795,0.0125916,
8534,0.000610352,0.0125427,
8536,-0.00183105,0.0124207,
8538,-0.00732422,0.012262,
8540,-0.0177002,0.0124329,
8542,-0.0305176,0.0127136,
8544,-0.010376,0.0128052,
8546,-0.00976563,0.012854,
8548,-0.0256348,0.0130798,
8550,-0.0317383,0.0132507,
8552,-0.0183105,0.0133667,
8554,0.0012207,0.0130554,
8556,0.00305176,0.012854,
8558,-0.0286865,0.0128601,
8560,0.0012207,0.0126709,
8562,-0.012207,0.0127869,
8564,-0.0146484,0.012915,
8566,-0.00244141,0.0128296,
8568,-0.0115967,0.0128174,
8570,-0.0152588,0.0128052,
8572,-0.0189209,0.0128174,
8574,-0.0128174,0.012738,
8576,0.0128174,0.0125549,
8578,0.00549316,0.012262,
8580,-0.0134277,0.0123047,
8582,-0.00488281,0.0123291,
8584,-0.00183105,0.012262,
8586,0.0341797,0.0125732,
8588,-0.0317383,0.0126709,
8590,0.010376,0.0126221,
8592,0.0170898,0.012738,
8594,0.010376,0.0124756,
8596,0.00244141,0.0122803,
8598,-0.00244141,0.0121521,
8600,0.00549316,0.0121033,
8602,0.0115967,0.0119873,
8604,-0.00549316,0.0117493,
8606,-0.0164795,0.0118591,
8608,0.000610352,0.0117188,
8610,0.0164795,0.0117371,
8612,-0.0158691,0.0117371,
8614,-0.0439453,0.0120972,
8616,-0.0292969,0.0121094,
8618,-0.00366211,0.0120728,
8620,0.00976563,0.0119263,
8622,-0.0231934,0.0120056,
8624,-0.0183105,0.0118958,
8626,-0.00793457,0.0117493,
8628,-0.0177002,0.0118286,
8630,-0.00732422,0.011792,
8632,0.0115967,0.0118713,
8634,-0.0134277,0.0118896,
8636,-0.00244141,0.011908,
8638,-0.0158691,0.0120605,
8640,-0.0115967,0.0121521,
8642,-0.0115967,0.012146,
8644,-0.0158691,0.0122009,
8646,-0.00915527,0.0122559,
8648,-0.00915527,0.0122437,
8650,0.00366211,0.012262,
8652,0,0.0122253,
8654,0.00854492,0.0122375,
8656,0.0201416,0.0122864,
8658,-0.0280762,0.0122986,
8660,-0.00244141,0.0122375,
8662,0.00793457,0.0122986,
8664,0.0164795,0.0122375,
