Dani_B_1-L01
Gráfico creado el:2026-06-03 17:15:50.222
Registro en:2026-06-03 17:16:20.389
2 mseg/muestras
2 canales
EMG
mV
EMG Integrado
mV-sec
milliSec,CH1,CH40,
,90336 samples,90336 samples,
0,0.00976563,9.76563E-05,
2,-0.0012207,0.000109863,
4,-0.00549316,0.000164795,
6,0,0.000164795,
8,0.0115967,0.000280762,
10,0.0164795,0.000445557,
12,-0.00244141,0.000469971,
14,-0.00610352,0.000531006,
16,0.00549316,0.000585937,
18,-0.00244141,0.000610352,
20,-0.0158691,0.000769043,
22,-0.010376,0.000872803,
24,-0.00610352,0.000933838,
26,0.0012207,0.000946045,
28,-0.0152588,0.00109863,
30,-0.00793457,0.00117798,
32,0,0.00117798,
34,-0.00854492,0.00126343,
36,0.00427246,0.00130615,
38,-0.00671387,0.00137329,
40,-0.00549316,0.00142822,
42,-0.0146484,0.00157471,
44,0.000610352,0.00158081,
46,-0.00793457,0.00166016,
48,-0.00427246,0.00170288,
50,0.00610352,0.00176392,
52,0.0012207,0.00177612,
54,-0.00549316,0.00183105,
56,0.00427246,0.00187378,
58,-0.00183105,0.00189209,
60,-0.000610352,0.00189819,
62,-0.0012207,0.0019104,
64,-0.0140381,0.00205078,
66,-0.00610352,0.00211182,
68,-0.0012207,0.00212402,
70,-0.0012207,0.00213623,
72,-0.00366211,0.00217285,
74,-0.0115967,0.00228882,
76,0.00610352,0.00234985,
78,0.0012207,0.00236206,
80,-0.0109863,0.00247192,
82,0.00793457,0.00255127,
84,-0.00671387,0.00261841,
86,-0.00610352,0.00267944,
88,-0.00305176,0.00270996,
90,-0.00244141,0.00273438,
92,-0.00549316,0.00278931,
94,-0.0012207,0.00280151,
96,0,0.00280151,
98,-0.00488281,0.00285034,
100,0.0012207,0.00286255,
102,-0.00488281,0.00291138,
104,-0.00427246,0.0029541,
106,0.0012207,0.00296631,
108,-0.0146484,0.00311279,
110,-0.012207,0.00323486,
112,-0.0115967,0.00335083,
114,0.00366211,0.00338745,
116,-0.00305176,0.00341797,
118,-0.00488281,0.0034668,
120,-0.00915527,0.00355835,
122,0.0115967,0.00367432,
124,-0.00488281,0.00372314,
126,0,0.00372314,
128,0.00976563,0.0038208,
130,0.00366211,0.00385742,
132,-0.00549316,0.00391235,
134,-0.012207,0.00403442,
136,0.00366211,0.00407104,
138,0.000610352,0.00407715,
140,-0.00671387,0.00414429,
142,0.00854492,0.00422974,
144,0.012207,0.00435181,
146,-0.0140381,0.00449219,
148,-0.0012207,0.00450439,
150,-0.000610352,0.0045105,
152,-0.00549316,0.00456543,
154,-0.00427246,0.00460815,
156,0.00427246,0.00465088,
158,-0.022583,0.00487671,
160,-0.010376,0.00498047,
162,-0.00183105,0.00499878,
164,-0.00976563,0.00509644,
166,0,0.00509644,
168,0,0.00509644,
170,0.0012207,0.00510864,
172,0,0.00510864,
174,-0.0140381,0.00524902,
176,-0.00854492,0.00533447,
178,0.00366211,0.00537109,
180,-0.00488281,0.00541992,
182,-0.00793457,0.00549927,
184,-0.012207,0.00562134,
186,0.00366211,0.00565796,
188,-0.00549316,0.00571289,
190,0.00488281,0.00576172,
192,-0.0109863,0.00587158,
194,-0.000610352,0.00587769,
196,0.00305176,0.0059082,
198,-0.00305176,0.00593872,
200,-0.00183105,0.00585938,
202,-0.00549316,0.0059021,
204,-0.0152588,0.00599976,
206,0.0238037,0.00623779,
208,-0.0115967,0.00623779,
210,-0.012207,0.00619507,
212,0.00183105,0.00618896,
214,-0.00366211,0.00616455,
216,-0.000610352,0.00611572,
218,-0.00854492,0.00617676,
220,0.00488281,0.00606689,
222,-0.00366211,0.00599976,
224,-0.0164795,0.00610352,
226,0.00305176,0.00612183,
228,0.000610352,0.00597534,
230,0.0012207,0.0059082,
232,-0.000610352,0.00591431,
234,-0.0164795,0.00599365,
236,0.00427246,0.00599365,
238,0.00305176,0.00595703,
240,-0.00183105,0.00592041,
242,-0.00244141,0.00579834,
244,-0.00366211,0.00582886,
246,-0.00427246,0.00579224,
248,0.00183105,0.00576782,
250,0.0012207,0.00571899,
252,-0.0158691,0.00586548,
254,0.00427246,0.00585327,
256,-0.00183105,0.00582886,
258,-0.012207,0.00593262,
260,-0.00549316,0.00598145,
262,-0.000610352,0.00597534,
264,-0.00732422,0.0059082,
266,0.00488281,0.005896,
268,-0.00427246,0.00592651,
270,-0.00244141,0.00593872,
272,-0.00244141,0.00592651,
274,-0.00366211,0.00584717,
276,0,0.00578613,
278,-0.00671387,0.00584106,
280,0.000610352,0.0057373,
282,0.00427246,0.00570068,
284,-0.00244141,0.00565796,
286,-0.00366211,0.00563354,
288,-0.000610352,0.00560913,
290,0.00183105,0.00560303,
292,-0.0012207,0.0055603,
294,-0.0012207,0.0055603,
296,0.00854492,0.00564575,
298,0,0.00559692,
300,-0.00183105,0.00560303,
302,-0.00244141,0.00557861,
304,0,0.00553589,
306,0.0012207,0.00553589,
308,0.00427246,0.00543213,
310,-0.0012207,0.00532227,
312,0.00366211,0.00524292,
314,-0.00427246,0.00524902,
316,0.00244141,0.00524292,
318,-0.0012207,0.0052063,
320,0.0158691,0.00527344,
322,-0.00549316,0.0052124,
324,-0.00549316,0.00521851,
326,0.012207,0.00534058,
328,-0.00732422,0.00531616,
330,0.00427246,0.00532227,
332,-0.00854492,0.00535278,
334,-0.00671387,0.00529785,
336,-0.00305176,0.00529175,
338,-0.00183105,0.00530396,
340,-0.0170898,0.00540771,
342,-0.00732422,0.00539551,
344,0.000610352,0.00527954,
346,-0.00915527,0.00523071,
348,0,0.00521851,
350,-0.00671387,0.00527954,
352,-0.00793457,0.00530396,
354,-0.00366211,0.00529785,
356,-0.00305176,0.00528564,
358,-0.010376,0.00516357,
360,-0.00915527,0.00515137,
362,-0.00610352,0.00519409,
364,-0.00854492,0.00518188,
366,0.00793457,0.00526123,
368,-0.00854492,0.00534668,
370,-0.0012207,0.00534668,
372,-0.000610352,0.00535278,
374,-0.000610352,0.00521851,
376,0.00183105,0.00515137,
378,-0.00183105,0.00513306,
380,-0.00915527,0.00517578,
382,0.0012207,0.00510864,
384,-0.00610352,0.00504761,
386,0.000610352,0.00501709,
388,-0.0012207,0.00497437,
390,0.00427246,0.00496826,
392,0.00244141,0.00488281,
394,0,0.00487671,
396,-0.0012207,0.0048584,
398,-0.00244141,0.00485229,
400,0.00305176,0.0048645,
402,-0.00305176,0.00484009,
404,-0.010376,0.00479126,
406,-0.00549316,0.00460815,
408,0.00915527,0.00458374,
410,-0.00671387,0.00452881,
412,-0.00915527,0.00460205,
414,-0.00854492,0.00465088,
416,0.00915527,0.00473633,
418,-0.000610352,0.00465698,
420,0.00244141,0.00463257,
422,-0.0134277,0.00473022,
424,0.000610352,0.00457153,
426,0,0.00454102,
428,-0.0134277,0.00466919,
430,-0.00183105,0.00467529,
432,-0.010376,0.00477295,
434,-0.00366211,0.00464478,
436,0,0.00460205,
438,-0.020752,0.00477905,
440,-0.0134277,0.00489502,
442,0.00549316,0.00492554,
444,0.000610352,0.00489502,
446,0.00366211,0.00488892,
448,0.0012207,0.00488281,
450,-0.00183105,0.00488892,
452,0.0012207,0.00474243,
454,0.00183105,0.00471802,
456,0.00366211,0.00473633,
458,-0.00610352,0.00467529,
460,-0.0109863,0.00473022,
462,0.00305176,0.00475464,
464,-0.0109863,0.00479126,
466,0.00244141,0.00476685,
468,0.00244141,0.00474854,
470,0.00305176,0.00475464,
472,0.00854492,0.00481567,
474,-0.00549316,0.00483398,
476,0.00427246,0.00487671,
478,-0.00183105,0.00482788,
480,0.00366211,0.0048584,
482,-0.00854492,0.00490112,
484,-0.00244141,0.00490112,
486,-0.0140381,0.00500488,
488,-0.00793457,0.00507813,
490,-0.00915527,0.00515137,
492,0.00549316,0.00519409,
494,-0.00427246,0.00522461,
496,-0.010376,0.00524292,
498,-0.00488281,0.00529175,
500,0.00183105,0.00529175,
502,-0.00305176,0.00529785,
504,-0.00549316,0.00535278,
506,-0.0012207,0.00535278,
508,-0.00305176,0.00534058,
510,0.00488281,0.0053772,
512,0,0.00534058,
514,0.000610352,0.00530396,
516,0.00244141,0.00530396,
518,-0.00793457,0.00537109,
520,0.00915527,0.00530396,
522,0.00915527,0.00534058,
524,-0.00610352,0.00534668,
526,0.0012207,0.00523682,
528,0.00549316,0.00521851,
530,-0.000610352,0.00518188,
532,0.00244141,0.00512085,
534,0.0128174,0.00518188,
536,-0.0115967,0.00526733,
538,-0.0012207,0.00526123,
540,-0.00793457,0.00516968,
542,-0.00549316,0.00515137,
544,0.0012207,0.00515747,
546,-0.00183105,0.00508423,
548,-0.0109863,0.00519409,
550,-0.0164795,0.00529175,
552,0.0140381,0.00535278,
554,-0.00854492,0.00540161,
556,-0.00732422,0.00544434,
558,-0.00854492,0.00542603,
560,-0.0012207,0.00534668,
562,-0.0140381,0.00542603,
564,0.00427246,0.0053833,
566,-0.00488281,0.00535278,
568,0.00366211,0.00530396,
570,0.00244141,0.00531616,
572,0.0012207,0.00532227,
574,0,0.00531616,
576,-0.00366211,0.00533447,
578,0,0.00531616,
580,-0.00427246,0.00526733,
582,0.00183105,0.00527344,
584,-0.0109863,0.00532227,
586,-0.00305176,0.00534668,
588,0,0.00533447,
590,-0.0140381,0.00543213,
592,0.00427246,0.00545044,
594,0.00305176,0.00548096,
596,-0.00244141,0.00549316,
598,-0.0012207,0.00548096,
600,0.00488281,0.00549927,
602,0.000610352,0.00547485,
604,-0.00671387,0.00543823,
606,-0.0012207,0.00539551,
608,-0.00488281,0.00535278,
610,0,0.00528564,
612,-0.00610352,0.00525513,
614,-0.010376,0.00527344,
616,0.00183105,0.0052002,
618,-0.00549316,0.00524902,
620,-0.00366211,0.00526123,
622,0.00732422,0.0052002,
624,-0.00366211,0.00523071,
626,0.00244141,0.00525513,
628,0.0012207,0.00513306,
630,-0.00305176,0.00514526,
632,-0.00488281,0.00509033,
634,-0.0115967,0.00516968,
636,0.0170898,0.00534058,
638,-0.020752,0.00534058,
640,0.00671387,0.00527344,
642,0.0012207,0.00523071,
644,-0.00427246,0.00526733,
646,-0.00366211,0.00526733,
648,0,0.00525513,
650,0.00732422,0.00531006,
652,-0.00244141,0.00532227,
654,-0.010376,0.00540771,
656,-0.00183105,0.0053894,
658,0.00244141,0.00535278,
660,-0.000610352,0.00524902,
662,-0.00183105,0.00523682,
664,-0.00793457,0.0052063,
666,0.00732422,0.00525513,
668,-0.0109863,0.00534058,
670,-0.00183105,0.00532837,
672,-0.00305176,0.00527344,
674,-0.0164795,0.0053833,
676,0.0128174,0.00546875,
678,0.000610352,0.00545654,
680,0,0.00541992,
682,-0.000610352,0.00534058,
684,-0.00427246,0.00535889,
686,0.00793457,0.00529785,
688,0.0109863,0.00532837,
690,-0.00488281,0.00528564,
692,0.00549316,0.00528564,
694,-0.00854492,0.00532837,
696,-0.0012207,0.00523682,
698,-0.0012207,0.0052002,
700,0.00488281,0.00523071,
702,-0.00244141,0.00522461,
704,-0.00183105,0.00518799,
706,-0.00427246,0.00521851,
708,0.00244141,0.0052124,
710,-0.00488281,0.0052124,
712,-0.00305176,0.00524292,
714,-0.00793457,0.00531616,
716,-0.00183105,0.00531006,
718,-0.0115967,0.00534668,
720,-0.00549316,0.00531006,
722,0.000610352,0.00522461,
724,-0.00732422,0.00523682,
726,-0.00183105,0.00524292,
728,-0.00366211,0.00522461,
730,0.00183105,0.00523682,
732,-0.000610352,0.00521851,
734,-0.00244141,0.00511475,
736,-0.00610352,0.00505981,
738,-0.00183105,0.00506592,
740,-0.00488281,0.0050354,
742,-0.00549316,0.0050354,
744,-0.00366211,0.00505981,
746,-0.00183105,0.00505981,
748,-0.00427246,0.00499268,
750,-0.00915527,0.00491943,
752,-0.010376,0.00488281,
754,-0.0115967,0.00491333,
756,0.0109863,0.00494995,
758,-0.010376,0.00496826,
760,-0.0140381,0.00509644,
762,0.00976563,0.00505371,
764,-0.0134277,0.00514526,
766,-0.00183105,0.00511475,
768,0,0.00507813,
770,0.012207,0.00517578,
772,0.00610352,0.00522461,
774,-0.0140381,0.00536499,
776,-0.0012207,0.00534058,
778,0.00427246,0.0053833,
780,-0.00305176,0.00537109,
782,-0.00183105,0.00537109,
784,-0.00976563,0.00535889,
786,0.00244141,0.00535278,
788,-0.0152588,0.00550537,
790,-0.010376,0.00546875,
792,0.0170898,0.00559692,
794,-0.00732422,0.00563965,
796,0,0.00561523,
798,0.00366211,0.00563965,
800,-0.00366211,0.00562744,
802,-0.00366211,0.00565796,
804,0.00305176,0.00562134,
806,-0.00244141,0.00563354,
808,-0.00488281,0.00563354,
810,-0.00976563,0.0057312,
812,0.00183105,0.00568848,
814,-0.012207,0.00570679,
816,0.00488281,0.0057373,
818,-0.000610352,0.00568848,
820,0.00915527,0.00574341,
822,0.00488281,0.00571899,
824,-0.000610352,0.00568848,
826,0.00305176,0.00569458,
828,-0.00427246,0.0057251,
830,0.000610352,0.00570068,
832,-0.00427246,0.00569458,
834,-0.0134277,0.00571289,
836,-0.012207,0.00566406,
838,-0.0146484,0.00560303,
840,-0.00610352,0.00559692,
842,0.00427246,0.00562744,
844,-0.0164795,0.00574951,
846,0.000610352,0.00571899,
848,0.00183105,0.0057373,
850,0.012207,0.00578613,
852,-0.00732422,0.00583496,
854,-0.0134277,0.00586548,
856,0.00610352,0.0059082,
858,0.00244141,0.0059082,
860,-0.00732422,0.00597534,
862,-0.00488281,0.00600586,
864,0.00183105,0.00594482,
866,0.00549316,0.00592651,
868,-0.0109863,0.00592651,
870,0.00854492,0.00599365,
872,-0.00305176,0.00599365,
874,0.00427246,0.00587158,
876,-0.00488281,0.00579224,
878,-0.00671387,0.00585327,
880,-0.00549316,0.0059082,
882,0,0.0059021,
884,-0.00366211,0.005896,
886,0.0012207,0.00582886,
888,-0.00366211,0.00575562,
890,0.00610352,0.00576782,
892,0.000610352,0.00571899,
894,-0.00427246,0.00567627,
896,0.00305176,0.00569458,
898,-0.00244141,0.00570679,
900,0.0012207,0.00567017,
902,-0.00976563,0.00574341,
904,-0.0158691,0.00588379,
906,0.00244141,0.00586548,
908,-0.00305176,0.00587158,
910,-0.00305176,0.00585327,
912,0.00305176,0.00585327,
914,-0.00366211,0.00581055,
916,-0.0012207,0.00580444,
918,-0.00183105,0.00570679,
920,0.000610352,0.00565796,
922,0.00915527,0.00574341,
924,-0.00915527,0.00576172,
926,-0.00183105,0.00576172,
928,-0.00610352,0.00578613,
930,-0.0012207,0.00578003,
932,0.010376,0.00587769,
934,-0.00183105,0.00587158,
936,-0.0134277,0.00594482,
938,0.000610352,0.00593262,
940,-0.00610352,0.00594482,
942,0,0.00588989,
944,-0.00366211,0.00588989,
946,-0.00244141,0.005896,
948,0.00183105,0.00587158,
950,-0.00244141,0.00580444,
952,-0.010376,0.00580444,
954,-0.00976563,0.00578613,
956,0.00549316,0.0057312,
958,-0.0012207,0.00563965,
960,-0.00244141,0.00552368,
962,-0.00671387,0.00549316,
964,-0.00976563,0.00545654,
966,-0.00366211,0.00547485,
968,-0.00976563,0.00557251,
970,0.00488281,0.00549927,
972,0.00427246,0.00548096,
974,-0.010376,0.00544434,
976,-0.0115967,0.0055481,
978,0.0012207,0.00551758,
980,-0.00305176,0.00551758,
982,-0.00549316,0.0055542,
984,0.00488281,0.00550537,
986,-0.00183105,0.00549927,
988,-0.0109863,0.00545654,
990,-0.00671387,0.00541992,
992,0.00610352,0.00531006,
994,-0.00549316,0.00529175,
996,-0.000610352,0.00529785,
998,-0.0012207,0.00527344,
1000,-0.00610352,0.00529785,
1002,-0.00671387,0.00532837,
1004,-0.00305176,0.00532837,
1006,0,0.00530396,
1008,-0.00793457,0.00533447,
1010,-0.00549316,0.00529175,
1012,-0.00366211,0.00531006,
1014,-0.0158691,0.00534668,
1016,-0.0140381,0.00543823,
1018,0.0012207,0.00544434,
1020,-0.00976563,0.00545044,
1022,-0.0012207,0.00541382,
1024,-0.00976563,0.00550537,
1026,0.00183105,0.00549316,
1028,-0.00915527,0.00554199,
1030,0,0.00553589,
1032,0.00366211,0.00552979,
1034,0.00671387,0.00546265,
1036,0.0012207,0.00535278,
1038,0.00244141,0.00523071,
1040,-0.00427246,0.0052124,
1042,0.00366211,0.0052063,
1044,-0.00610352,0.00510254,
1046,0.00915527,0.00518799,
1048,-0.00793457,0.00524902,
1050,-0.0012207,0.00513916,
1052,-0.000610352,0.00507202,
1054,-0.00793457,0.00501709,
1056,-0.0012207,0.00496826,
1058,-0.00305176,0.00497437,
1060,-0.000610352,0.00490723,
1062,0.00183105,0.00487671,
1064,-0.00244141,0.00488281,
1066,0.00488281,0.00487671,
1068,-0.0012207,0.00477905,
1070,0.00427246,0.00473633,
1072,0.000610352,0.00471191,
1074,-0.0238037,0.00490723,
1076,0.00915527,0.00494995,
1078,0.00976563,0.00498047,
1080,-0.0012207,0.00493774,
1082,-0.0115967,0.00505371,
1084,-0.0201416,0.00521851,
1086,0.00244141,0.00523071,
1088,0.0140381,0.00533447,
1090,-0.00915527,0.00536499,
1092,-0.00488281,0.00540771,
1094,-0.00549316,0.00541992,
1096,-0.00183105,0.00540771,
1098,0.00366211,0.00541992,
1100,-0.00854492,0.00549316,
1102,-0.00183105,0.00541382,
1104,0.000610352,0.00526123,
1106,0.0012207,0.00524902,
1108,-0.00427246,0.00526123,
1110,-0.0140381,0.00537109,
1112,-0.00305176,0.00537109,
1114,-0.00976563,0.00543213,
1116,0.00244141,0.00544434,
1118,-0.00610352,0.00548706,
1120,-0.00976563,0.00557861,
1122,0.000610352,0.00549316,
1124,-0.00305176,0.00543213,
1126,0.00854492,0.00549927,
1128,0.0158691,0.00559692,
1130,-0.0134277,0.00571899,
1132,-0.00732422,0.00568848,
1134,0.000610352,0.00567627,
1136,0.00854492,0.00562744,
1138,0.00427246,0.00566406,
1140,-0.00488281,0.00565186,
1142,-0.00488281,0.00570068,
1144,-0.000610352,0.00567017,
1146,-0.00183105,0.00566406,
1148,-0.00488281,0.00569458,
1150,0.00610352,0.0057312,
1152,-0.00244141,0.00565186,
1154,-0.00427246,0.00559692,
1156,-0.0109863,0.00565186,
1158,0.00427246,0.00568237,
1160,0.00793457,0.0057373,
1162,0.00793457,0.00574951,
1164,-0.0238037,0.00588989,
1166,-0.010376,0.00595703,
1168,0.00671387,0.00592651,
1170,0.00549316,0.00593262,
1172,0.00610352,0.00595093,
1174,-0.0286865,0.00613403,
1176,-0.00915527,0.00610962,
1178,-0.00183105,0.00611572,
1180,-0.012207,0.00620728,
1182,0.00366211,0.00618896,
1184,-0.0201416,0.00634155,
1186,-0.000610352,0.00632935,
1188,-0.0170898,0.00639038,
1190,-0.00671387,0.00639038,
1192,0.00488281,0.00637817,
1194,-0.00427246,0.00636597,
1196,-0.000610352,0.00636597,
1198,0.00854492,0.00643921,
1200,-0.0012207,0.00639038,
1202,0.00366211,0.00635986,
1204,-0.00183105,0.00634766,
1206,0.00732422,0.0064209,
1208,0.00915527,0.00643311,
1210,-0.0012207,0.00639038,
1212,0.00183105,0.00637207,
1214,-0.010376,0.00631714,
1216,0.00305176,0.00620728,
1218,0.0537109,0.00673218,
1220,0.00366211,0.00667114,
1222,-0.0170898,0.00682983,
1224,-0.012207,0.00685425,
1226,0.012207,0.00695801,
1228,-0.00305176,0.00689697,
1230,-0.0134277,0.00703125,
1232,-0.0201416,0.00719604,
1234,-0.0335693,0.0074646,
1236,-0.0109863,0.00756226,
1238,-0.0128174,0.00766602,
1240,-0.0140381,0.00776367,
1242,-0.00244141,0.00775146,
1244,-0.00244141,0.00771484,
1246,-0.0012207,0.0076355,
1248,-0.00610352,0.00761719,
1250,-0.00854492,0.00769043,
1252,-0.0012207,0.00769653,
1254,-0.012207,0.00773926,
1256,-0.00427246,0.00776978,
1258,-0.00671387,0.0078064,
1260,-0.00183105,0.0078186,
1262,0.00305176,0.00783081,
1264,0.00305176,0.00783691,
1266,-0.00671387,0.00785522,
1268,-0.000610352,0.00784912,
1270,0.012207,0.00792847,
1272,0,0.00792236,
1274,-0.00305176,0.00771484,
1276,-0.00427246,0.00766602,
1278,-0.00488281,0.00761719,
1280,-0.0109863,0.00771484,
1282,0.00671387,0.00766602,
1284,-0.012207,0.00758667,
1286,0,0.00756226,
1288,-0.00488281,0.0074707,
1290,0.000610352,0.00738525,
1292,0.000610352,0.00734253,
1294,0.00183105,0.00730591,
1296,0.00915527,0.00737915,
1298,0.00976563,0.00744019,
1300,0.000610352,0.00736084,
1302,-0.00915527,0.00743408,
1304,-0.00427246,0.0074707,
1306,-0.00244141,0.00748291,
1308,-0.00976563,0.00753784,
1310,-0.0128174,0.00752563,
1312,-0.0152588,0.00764771,
1314,-0.020752,0.00775757,
1316,0.00549316,0.00778809,
1318,-0.0128174,0.00785522,
1320,-0.00915527,0.00784912,
1322,0.00427246,0.00788574,
1324,-0.00244141,0.00787964,
1326,-0.00305176,0.00782471,
1328,0.000610352,0.00767212,
1330,-0.00366211,0.00757446,
1332,-0.00793457,0.00758057,
1334,-0.010376,0.00767822,
1336,0,0.00759277,
1338,0.00427246,0.00759277,
1340,-0.00671387,0.00761108,
1342,0.00427246,0.00760498,
1344,-0.00244141,0.00762329,
1346,-0.0115967,0.00772095,
1348,0.00488281,0.00772095,
1350,0,0.00765991,
1352,-0.00244141,0.00765991,
1354,-0.00793457,0.00769653,
1356,-0.00854492,0.00767212,
1358,-0.00976563,0.00772705,
1360,-0.0012207,0.00765991,
1362,-0.000610352,0.00758667,
1364,-0.00793457,0.00742798,
1366,0.00610352,0.00738525,
1368,-0.00366211,0.00735474,
1370,0.00671387,0.00736694,
1372,0.00305176,0.00733643,
1374,-0.00793457,0.00712891,
1376,0.0012207,0.00704956,
1378,-0.00732422,0.00710449,
1380,-0.00732422,0.00705566,
1382,0.00305176,0.00704956,
1384,-0.0115967,0.00696411,
1386,-0.00793457,0.00703735,
1388,-0.00549316,0.00692139,
1390,-0.00793457,0.00693359,
1392,0.00793457,0.00696411,
1394,-0.00732422,0.00699463,
1396,-0.00366211,0.00702515,
1398,0.00366211,0.00697632,
1400,0.00793457,0.00704346,
1402,-0.0140381,0.00714722,
1404,-0.00244141,0.00715332,
1406,0.0158691,0.00723877,
1408,0.00366211,0.00718384,
1410,-0.0128174,0.0072998,
1412,-0.00793457,0.00736084,
1414,-0.0012207,0.00726929,
1416,0.000610352,0.00724487,
1418,-0.010376,0.00681152,
1420,-0.00305176,0.00680542,
1422,-0.00610352,0.00669556,
1424,-0.0146484,0.00671997,
1426,-0.00488281,0.00664673,
1428,-0.00854492,0.00670166,
1430,-0.00671387,0.00663452,
1432,-0.00427246,0.00647583,
1434,-0.00183105,0.00615845,
1436,-0.00854492,0.00613403,
1438,0.00366211,0.00604248,
1440,-0.00244141,0.00592651,
1442,0.00427246,0.00594482,
1444,0.00244141,0.00594482,
1446,-0.00244141,0.00595703,
1448,0.00305176,0.00592651,
1450,-0.000610352,0.00584717,
1452,-0.00488281,0.00588379,
1454,-0.00976563,0.00585938,
1456,-0.00305176,0.00584717,
1458,-0.00549316,0.00583496,
1460,-0.00610352,0.00587769,
1462,-0.00366211,0.00588379,
1464,-0.00732422,0.00592651,
1466,0.00183105,0.00587769,
1468,0.000610352,0.00587769,
1470,0.00549316,0.00581055,
1472,0.00915527,0.0059021,
1474,-0.00610352,0.00593262,
1476,-0.000610352,0.005896,
1478,-0.00549316,0.0059021,
1480,0,0.00579224,
1482,0.00183105,0.00574341,
1484,-0.0170898,0.00579224,
1486,0.00549316,0.00584717,
1488,-0.000610352,0.00580444,
1490,-0.0244141,0.00604248,
1492,-0.000610352,0.00604248,
1494,0.000610352,0.00603027,
1496,0,0.00593872,
1498,-0.010376,0.00594482,
1500,-0.00671387,0.00600586,
1502,0.00427246,0.00595703,
1504,-0.0134277,0.00604858,
1506,-0.00244141,0.00604858,
1508,-0.00366211,0.00598755,
1510,-0.00366211,0.005896,
1512,0.00183105,0.00576172,
1514,-0.00549316,0.00560913,
1516,-0.00488281,0.00560303,
1518,-0.00915527,0.00556641,
1520,0.0012207,0.00548706,
1522,0.00427246,0.00548706,
1524,-0.00183105,0.00548096,
1526,-0.00427246,0.00549316,
1528,0.000610352,0.00549316,
1530,-0.00854492,0.00554199,
1532,0.00793457,0.00554199,
1534,-0.00488281,0.00548706,
1536,-0.00549316,0.00554199,
1538,-0.00366211,0.00553589,
1540,-0.00183105,0.00548706,
1542,-0.00183105,0.00546265,
1544,-0.00915527,0.00552979,
1546,0.00732422,0.00548706,
1548,0.00366211,0.00547485,
1550,-0.00976563,0.00557251,
1552,-0.00671387,0.00561523,
1554,-0.00305176,0.00556641,
1556,-0.00183105,0.00549927,
1558,-0.00305176,0.00543213,
1560,-0.00854492,0.00550537,
1562,-0.00732422,0.00557251,
1564,-0.0115967,0.00560913,
1566,0.00366211,0.00558472,
1568,-0.00366211,0.00558472,
1570,0.00366211,0.0055542,
1572,-0.00610352,0.00558472,
1574,-0.00610352,0.00556641,
1576,0.00793457,0.00563354,
1578,-0.0170898,0.0057312,
1580,0.00488281,0.00570679,
1582,-0.010376,0.00578003,
1584,-0.0152588,0.00581665,
1586,-0.00915527,0.00582886,
1588,-0.00671387,0.00584106,
1590,-0.00427246,0.00580444,
1592,-0.00732422,0.00579834,
1594,0.00549316,0.00578003,
1596,0.00183105,0.00576172,
1598,0.00732422,0.00579834,
1600,-0.00427246,0.00576172,
1602,0.00671387,0.00568848,
1604,0.0012207,0.00567627,
1606,0.00549316,0.00557251,
1608,-0.00671387,0.00560303,
1610,-0.0012207,0.00548706,
1612,0.00488281,0.00545654,
1614,-0.0128174,0.00557251,
1616,-0.00366211,0.00560303,
1618,-0.0012207,0.00551147,
1620,0.00305176,0.00551147,
1622,-0.00244141,0.00547485,
1624,-0.00488281,0.0053772,
1626,-0.00427246,0.00537109,
1628,0.000610352,0.00529175,
1630,-0.0115967,0.00534058,
1632,0.00671387,0.00536499,
1634,-0.00732422,0.00541992,
1636,0.00793457,0.00541382,
1638,-0.00732422,0.00545044,
1640,-0.00610352,0.00548706,
1642,0.00732422,0.00551758,
1644,0.00305176,0.00552368,
1646,0.00183105,0.00551758,
1648,-0.00854492,0.00557251,
1650,-0.00854492,0.00565186,
1652,0.00610352,0.00566406,
1654,-0.00549316,0.00562134,
1656,-0.00915527,0.00568237,
1658,0,0.00562744,
1660,-0.00488281,0.00561523,
1662,0.00244141,0.00560303,
1664,0.00732422,0.00560303,
1666,-0.00183105,0.00560303,
1668,0.000610352,0.00560303,
1670,-0.00610352,0.00560913,
1672,0.00793457,0.00559692,
1674,0.0134277,0.00567017,
1676,-0.00488281,0.00571289,
1678,-0.0152588,0.00581055,
1680,-0.00305176,0.00584106,
1682,0.00488281,0.00587158,
1684,-0.00610352,0.00576172,
1686,-0.00427246,0.00574951,
1688,-0.00366211,0.00578003,
1690,-0.0109863,0.00564575,
1692,0.00244141,0.00566406,
1694,0.00366211,0.00569458,
1696,0,0.00569458,
1698,-0.00488281,0.00563965,
1700,0.00610352,0.00563354,
1702,-0.00244141,0.00561523,
1704,0.00488281,0.00552979,
1706,0.00244141,0.00552979,
1708,0.00183105,0.00551147,
1710,-0.00305176,0.00550537,
1712,-0.00488281,0.00553589,
1714,0.00244141,0.00550537,
1716,0.0201416,0.00565796,
1718,-0.0134277,0.00570068,
1720,-0.00854492,0.00577393,
1722,0.0109863,0.00584106,
1724,-0.00183105,0.00584106,
1726,-0.00488281,0.00584717,
1728,-0.00793457,0.00592041,
1730,-0.00427246,0.00587769,
1732,0.00244141,0.00582275,
1734,-0.0115967,0.00588989,
1736,-0.000610352,0.00584106,
1738,-0.00427246,0.00584717,
1740,0.00488281,0.00587769,
1742,0.00610352,0.00592041,
1744,-0.00793457,0.0059082,
1746,-0.0012207,0.00584717,
1748,0.00244141,0.00583496,
1750,0.00305176,0.00576782,
1752,-0.00366211,0.0057373,
1754,-0.0115967,0.00582275,
1756,0.00305176,0.00583496,
1758,-0.0134277,0.00593872,
1760,0.0012207,0.00586548,
1762,0.0012207,0.00580444,
1764,-0.0115967,0.00580444,
1766,0,0.00576782,
1768,-0.00305176,0.00576172,
1770,0.00244141,0.00574951,
1772,0,0.00568848,
1774,-0.00427246,0.00567017,
1776,-0.00183105,0.00560913,
1778,-0.00610352,0.00549927,
1780,0.00183105,0.00546875,
1782,0.0109863,0.00547485,
1784,-0.00915527,0.00541382,
1786,-0.00915527,0.00541382,
1788,0,0.00534668,
1790,-0.00610352,0.00536499,
1792,0.00427246,0.00533447,
1794,-0.00427246,0.00532227,
1796,0.00305176,0.00533447,
1798,-0.00915527,0.00535278,
1800,0.0012207,0.00532227,
1802,-0.00244141,0.00527954,
1804,-0.00610352,0.00532837,
1806,0,0.00527344,
1808,-0.00671387,0.00527344,
1810,-0.010376,0.00536499,
1812,0.000610352,0.00532227,
1814,-0.0146484,0.00534058,
1816,-0.00305176,0.00533447,
1818,-0.00610352,0.0053833,
1820,-0.00183105,0.00537109,
1822,-0.00427246,0.0053894,
1824,-0.00427246,0.0053833,
1826,-0.0012207,0.00535278,
1828,-0.010376,0.00545044,
1830,0.00244141,0.00535889,
1832,-0.00183105,0.00531006,
1834,-0.00732422,0.00531006,
1836,0.00488281,0.00527954,
1838,-0.000610352,0.0052124,
1840,-0.00671387,0.00521851,
1842,-0.00305176,0.00517578,
1844,0.00366211,0.00518188,
1846,0.0012207,0.00517578,
1848,-0.00427246,0.00513306,
1850,-0.00427246,0.00509033,
1852,0.0012207,0.0050415,
1854,0.000610352,0.00499268,
1856,0.00854492,0.00498657,
1858,0.00732422,0.00505981,
1860,-0.00244141,0.0050354,
1862,-0.00915527,0.00510254,
1864,-0.0012207,0.0050415,
1866,0.0115967,0.00513916,
1868,-0.0109863,0.00524292,
1870,-0.00488281,0.00523071,
1872,0,0.00515137,
1874,-0.00305176,0.00504761,
1876,-0.0115967,0.00511475,
1878,0.0012207,0.00497437,
1880,-0.00488281,0.00499268,
1882,-0.00427246,0.00498657,
1884,-0.00732422,0.00499878,
1886,-0.00488281,0.00500488,
1888,-0.00915527,0.00505981,
1890,-0.00427246,0.00499268,
1892,0.0152588,0.00512085,
1894,0.00183105,0.00510254,
1896,-0.00244141,0.00512695,
1898,0.00915527,0.00516968,
1900,-0.00244141,0.00513306,
1902,0.0231934,0.00534058,
1904,-0.00671387,0.00535889,
1906,-0.020752,0.00554199,
1908,0.00915527,0.00561523,
1910,-0.00366211,0.00562134,
1912,-0.00427246,0.00561523,
1914,-0.010376,0.00569458,
1916,0,0.00549316,
1918,-0.00732422,0.00543213,
1920,-0.00732422,0.00541992,
1922,0.00244141,0.00533447,
1924,-0.00610352,0.0053772,
1926,-0.00793457,0.00540771,
1928,-0.00366211,0.00536499,
1930,-0.00183105,0.00534058,
1932,0.00854492,0.00540161,
1934,-0.00305176,0.00531616,
1936,-0.0158691,0.00546875,
1938,-0.000610352,0.00543213,
1940,0.00732422,0.00545654,
1942,-0.00305176,0.00542603,
1944,-0.010376,0.00545044,
1946,-0.00488281,0.00548706,
1948,-0.0115967,0.00557861,
1950,-0.010376,0.00565186,
1952,-0.00976563,0.00571289,
1954,0.00183105,0.00561523,
1956,-0.00732422,0.00565796,
1958,-0.0115967,0.00563965,
1960,0.00427246,0.00567017,
1962,0.00427246,0.00570068,
1964,0.010376,0.00568848,
1966,0.010376,0.00579224,
1968,-0.020752,0.00596924,
1970,0.00732422,0.00601807,
1972,0.00915527,0.00610962,
1974,-0.00976563,0.00616455,
1976,-0.00915527,0.00623779,
1978,-0.012207,0.00629883,
1980,-0.0201416,0.00648193,
1982,0.00793457,0.00645142,
1984,-0.00915527,0.00645142,
1986,0.0012207,0.00637207,
1988,-0.00183105,0.00639038,
1990,-0.00610352,0.00639038,
1992,0.00183105,0.00636597,
1994,0.00488281,0.00637207,
1996,0.00671387,0.00640869,
1998,-0.00244141,0.00634155,
2000,-0.00854492,0.00641479,
2002,-0.0115967,0.00650635,
2004,-0.00915527,0.00653687,
2006,0.00183105,0.00655518,
2008,-0.00366211,0.00652466,
2010,-0.0201416,0.00662231,
2012,0.0012207,0.00662842,
2014,-0.010376,0.00658569,
2016,0.000610352,0.00656128,
2018,-0.00366211,0.00653687,
2020,0.00915527,0.00661011,
2022,-0.0012207,0.00657959,
2024,-0.00732422,0.00661011,
2026,0.00427246,0.00664063,
2028,-0.0146484,0.00668335,
2030,-0.00793457,0.00673828,
2032,-0.00183105,0.00673828,
2034,-0.00732422,0.00673828,
2036,-0.0183105,0.00687256,
2038,-0.0128174,0.00699463,
2040,-0.00549316,0.00698242,
2042,-0.00488281,0.00700073,
2044,-0.00549316,0.00701904,
2046,0.000610352,0.00701294,
2048,-0.000610352,0.00697632,
2050,-0.0109863,0.00704346,
2052,0.00915527,0.0071228,
2054,-0.00793457,0.00719604,
2056,0.000610352,0.0071167,
2058,-0.00854492,0.00712891,
2060,-0.00732422,0.00717773,
2062,0,0.00708618,
2064,0.00854492,0.00715942,
2066,-0.00610352,0.00710449,
2068,-0.00549316,0.00704956,
2070,0.0012207,0.00701294,
2072,-0.00915527,0.00710449,
2074,-0.00305176,0.00710449,
2076,0.00305176,0.00701904,
2078,-0.0183105,0.00718994,
2080,-0.010376,0.00724487,
2082,-0.00671387,0.00726929,
2084,-0.00793457,0.00727539,
2086,-0.00244141,0.00725098,
2088,-0.00854492,0.00724487,
2090,-0.00793457,0.00728149,
2092,0.00244141,0.00715332,
2094,-0.00427246,0.00717773,
2096,-0.00183105,0.00717163,
2098,-0.00854492,0.00716553,
2100,-0.00732422,0.00721436,
2102,0.000610352,0.00698853,
2104,-0.00610352,0.00698242,
2106,-0.00915527,0.00686646,
2108,-0.00305176,0.00680542,
2110,-0.00549316,0.00682373,
2112,-0.00488281,0.00682983,
2114,-0.0134277,0.00686035,
2116,-0.000610352,0.00686646,
2118,0,0.00679321,
2120,0.00366211,0.00675659,
2122,0.0146484,0.00687866,
2124,-0.00671387,0.00688477,
2126,-0.00976563,0.00690308,
2128,0.012207,0.00698853,
2130,-0.00183105,0.00698853,
2132,-0.0128174,0.00703125,
2134,-0.012207,0.0071228,
2136,-0.00305176,0.00699463,
2138,-0.012207,0.0071106,
2140,-0.012207,0.00715942,
2142,0.000610352,0.00713501,
2144,-0.012207,0.00715332,
2146,-0.00732422,0.00717773,
2148,0.00427246,0.00710449,
2150,0.00671387,0.00706787,
2152,0,0.00697021,
2154,-0.00976563,0.00704956,
2156,0.00549316,0.00703125,
2158,-0.000610352,0.00692139,
2160,-0.00427246,0.00692139,
2162,0.010376,0.00698242,
2164,-0.00671387,0.0069458,
2166,-0.00183105,0.00686035,
2168,-0.00610352,0.00671387,
2170,-0.00305176,0.00667114,
2172,0,0.00657959,
2174,-0.0109863,0.0065918,
2176,-0.0012207,0.00651245,
2178,-0.00427246,0.00643311,
2180,-0.00488281,0.00628052,
2182,0.000610352,0.00620728,
2184,-0.00549316,0.00617065,
2186,-0.00244141,0.00618286,
2188,-0.000610352,0.00617065,
2190,-0.00732422,0.00618286,
2192,0.00305176,0.00619507,
2194,0.00854492,0.00623169,
2196,-0.00549316,0.00621948,
2198,-0.00610352,0.0062561,
2200,0.00427246,0.00621338,
2202,-0.00976563,0.00619507,
2204,-0.00305176,0.00613403,
2206,0.00305176,0.00614624,
2208,-0.00854492,0.00619507,
2210,-0.0134277,0.00612793,
2212,0.00610352,0.00617676,
2214,-0.00488281,0.00612183,
2216,0.00183105,0.00613403,
2218,-0.00854492,0.00618286,
2220,0.0012207,0.00610352,
2222,-0.0012207,0.00610352,
2224,-0.00183105,0.00604858,
2226,-0.00183105,0.00602417,
2228,-0.0164795,0.00604248,
2230,0.00244141,0.00598755,
2232,0.0012207,0.00598145,
2234,-0.012207,0.00603027,
2236,0.000610352,0.00585327,
2238,0.00244141,0.00574951,
2240,-0.0128174,0.00582275,
2242,-0.0012207,0.00578613,
2244,-0.00549316,0.00578613,
2246,0.00854492,0.00586548,
2248,0.0012207,0.00587158,
2250,-0.000610352,0.00576782,
2252,-0.00427246,0.00571899,
2254,-0.00488281,0.00568848,
2256,0.00244141,0.00570679,
2258,0.00793457,0.00570068,
2260,-0.0109863,0.0057373,
2262,-0.00976563,0.00583496,
2264,-0.0164795,0.00591431,
2266,0.00610352,0.00591431,
2268,-0.00610352,0.00592041,
2270,-0.0115967,0.00602417,
2272,0.00488281,0.00598145,
2274,-0.00183105,0.00596924,
2276,-0.00610352,0.00599976,
2278,0.00549316,0.00587158,
2280,-0.00488281,0.00581665,
2282,-0.00305176,0.00578003,
2284,-0.00488281,0.00574951,
2286,0.00244141,0.00574951,
2288,-0.00610352,0.0057251,
2290,-0.00793457,0.0057251,
2292,-0.00244141,0.0057251,
2294,-0.00915527,0.00577393,
2296,-0.00427246,0.00579834,
2298,0.000610352,0.00571899,
2300,-0.00610352,0.00570679,
2302,-0.00488281,0.00574951,
2304,-0.0012207,0.00570068,
2306,0,0.00560913,
2308,-0.00183105,0.00559692,
2310,-0.00854492,0.00562744,
2312,0.00305176,0.00560913,
2314,-0.00366211,0.00551147,
2316,0.00244141,0.00552979,
2318,-0.0195313,0.0057251,
2320,0.00427246,0.0057312,
2322,0.0134277,0.00571899,
2324,-0.00305176,0.00568237,
2326,-0.00732422,0.00565796,
2328,-0.0152588,0.00568848,
2330,0.010376,0.00577393,
2332,-0.0012207,0.00565796,
2334,-0.0152588,0.00568848,
2336,-0.00610352,0.00571899,
2338,-0.00976563,0.00569458,
2340,-0.00793457,0.00565186,
2342,-0.00488281,0.00569458,
2344,-0.000610352,0.00557861,
2346,0.00427246,0.0055481,
2348,0.00244141,0.00552979,
2350,-0.00427246,0.00550537,
2352,0.00610352,0.00556641,
2354,0.00488281,0.00551758,
2356,0.00183105,0.00548096,
2358,-0.000610352,0.00548096,
2360,-0.00549316,0.00549316,
2362,0.000610352,0.00539551,
2364,-0.00549316,0.0053833,
2366,0.00183105,0.0053833,
2368,0.00366211,0.00535889,
2370,0,0.00532837,
2372,0.00305176,0.00535889,
2374,0.00427246,0.00529175,
2376,0.00671387,0.00534668,
2378,-0.0012207,0.00531616,
2380,-0.0115967,0.0053833,
2382,0.00610352,0.00543823,
2384,-0.0140381,0.00552368,
2386,-0.00366211,0.00553589,
2388,0.00854492,0.00561523,
2390,-0.0109863,0.00565186,
2392,-0.00488281,0.00567017,
2394,0.00305176,0.00561523,
2396,-0.00366211,0.00559692,
2398,-0.00427246,0.00557861,
2400,-0.0012207,0.0055481,
2402,-0.00793457,0.00552979,
2404,-0.00183105,0.00551758,
2406,-0.00915527,0.00557861,
2408,-0.0170898,0.00566406,
2410,0,0.00552979,
2412,-0.00488281,0.00551758,
2414,-0.00305176,0.00549927,
2416,-0.00366211,0.00551758,
2418,-0.00366211,0.00546875,
2420,-0.0012207,0.00546875,
2422,0.00427246,0.00549927,
2424,-0.00305176,0.00551147,
2426,-0.00610352,0.0055542,
2428,-0.000610352,0.00539551,
2430,0.0012207,0.0053833,
2432,0,0.00537109,
2434,-0.00305176,0.00527954,
2436,-0.00732422,0.00534668,
2438,0.00427246,0.00536499,
2440,-0.00549316,0.00529175,
2442,0.00854492,0.00536499,
2444,0.00183105,0.00532837,
2446,-0.00244141,0.00526733,
2448,0.00427246,0.00529785,
2450,-0.00732422,0.00536499,
2452,0.00488281,0.00537109,
2454,-0.00488281,0.00537109,
2456,0.00305176,0.0053772,
2458,-0.00915527,0.0053894,
2460,-0.00488281,0.00532837,
2462,-0.000610352,0.00523682,
2464,-0.00671387,0.00513916,
2466,0.00549316,0.00513306,
2468,-0.00976563,0.00516968,
2470,0,0.00505371,
2472,0.00183105,0.00502319,
2474,-0.00549316,0.00505981,
2476,-0.00366211,0.0050354,
2478,-0.00793457,0.00505981,
2480,-0.00305176,0.0050415,
2482,0.00427246,0.00505371,
2484,0.000610352,0.00501099,
2486,0.0109863,0.00509644,
2488,-0.00671387,0.00510254,
2490,0.00427246,0.00506592,
2492,0.00427246,0.00508423,
2494,0.00976563,0.00509033,
2496,0.00549316,0.00510254,
2498,-0.00366211,0.00513306,
2500,-0.00854492,0.00515747,
2502,-0.000610352,0.00511475,
2504,-0.00854492,0.00518799,
2506,-0.010376,0.00529175,
2508,0.00183105,0.00529175,
2510,-0.00305176,0.00523682,
2512,-0.00244141,0.00523071,
2514,-0.0164795,0.00535889,
2516,0,0.00533447,
2518,-0.000610352,0.00514526,
2520,-0.00366211,0.00513916,
2522,0.00732422,0.00507813,
2524,-0.00183105,0.00506592,
2526,-0.0146484,0.00513916,
2528,-0.00488281,0.0050354,
2530,-0.00854492,0.00501709,
2532,0.00244141,0.0050293,
2534,-0.00915527,0.00496826,
2536,-0.0134277,0.0050415,
2538,-0.00610352,0.00500488,
2540,-0.00915527,0.00501709,
2542,-0.00427246,0.00501099,
2544,0.00244141,0.0050293,
2546,-0.00305176,0.00501709,
2548,0,0.00499268,
2550,0.00671387,0.00501709,
2552,-0.0115967,0.00507202,
2554,-0.00305176,0.00505371,
2556,0.00976563,0.00513306,
2558,-0.00549316,0.00518188,
2560,-0.00244141,0.00515137,
2562,0.0012207,0.00515747,
2564,-0.0115967,0.00521851,
2566,0.0109863,0.00531006,
2568,-0.00305176,0.00530396,
2570,-0.00427246,0.00534668,
2572,-0.00732422,0.0053894,
2574,-0.00732422,0.00541992,
2576,-0.00305176,0.0053833,
2578,-0.00976563,0.00546875,
2580,-0.0109863,0.00546265,
2582,-0.00427246,0.00544434,
2584,-0.0164795,0.00546875,
2586,-0.00366211,0.00546875,
2588,0.00183105,0.00540161,
2590,-0.00549316,0.00534668,
2592,-0.00549316,0.00535278,
2594,-0.00732422,0.00539551,
2596,0.0012207,0.00537109,
2598,-0.00244141,0.00535278,
2600,-0.00549316,0.00539551,
2602,-0.00366211,0.00535278,
2604,-0.00793457,0.00541382,
2606,-0.00976563,0.00541992,
2608,0.00427246,0.00529175,
2610,-0.010376,0.00539551,
2612,-0.00976563,0.00544434,
2614,-0.0115967,0.00552979,
2616,0.0140381,0.00563354,
2618,-0.00183105,0.00561523,
2620,-0.0189209,0.00579224,
2622,-0.00427246,0.00579224,
2624,-0.00488281,0.00581055,
2626,-0.00305176,0.00578003,
2628,-0.00244141,0.00579834,
2630,-0.00732422,0.00585938,
2632,0.00549316,0.00591431,
2634,-0.0158691,0.00604248,
2636,0.00244141,0.00599365,
2638,-0.00488281,0.00599976,
2640,-0.010376,0.00604858,
2642,-0.000610352,0.00596924,
2644,-0.00305176,0.00598145,
2646,-0.00366211,0.00599365,
2648,0.00183105,0.00596924,
2650,-0.00427246,0.00593872,
2652,0.0140381,0.00603027,
2654,-0.00488281,0.00603027,
2656,-0.0201416,0.00620117,
2658,0.00488281,0.00615845,
2660,-0.00305176,0.00614014,
2662,-0.00488281,0.00618286,
2664,-0.0189209,0.00630493,
2666,-0.0158691,0.00640869,
2668,0.00183105,0.00632935,
2670,0.000610352,0.00633545,
2672,-0.00549316,0.00637207,
2674,0.00305176,0.00634766,
2676,-0.00732422,0.00638428,
2678,-0.0115967,0.0064209,
2680,-0.0012207,0.00640259,
2682,0.010376,0.00646362,
2684,-0.0164795,0.00662231,
2686,-0.00976563,0.00661011,
2688,-0.00671387,0.00661011,
2690,0.00244141,0.0065918,
2692,-0.000610352,0.00655518,
2694,0.00671387,0.00652466,
2696,0.00793457,0.00654907,
2698,-0.000610352,0.00651855,
2700,-0.00610352,0.00649414,
2702,0.00183105,0.00650635,
2704,-0.000610352,0.006427,
2706,-0.0109863,0.00643311,
2708,-0.00915527,0.00650635,
2710,-0.00732422,0.00654907,
2712,-0.00244141,0.00654907,
2714,-0.0128174,0.00651245,
2716,-0.00488281,0.00656128,
2718,-0.00549316,0.00661011,
2720,-0.00366211,0.00661011,
2722,0.00427246,0.00657959,
2724,-0.00366211,0.0065979,
2726,-0.00244141,0.00647583,
2728,-0.00488281,0.00647583,
2730,-0.00366211,0.006427,
2732,-0.00183105,0.0064209,
2734,-0.00610352,0.00639038,
2736,-0.00366211,0.00629272,
2738,0.00305176,0.00626221,
2740,-0.000610352,0.00617676,
2742,0.00244141,0.00615845,
2744,-0.0109863,0.0062439,
2746,0.00366211,0.00625,
2748,-0.00244141,0.00627441,
2750,-0.000610352,0.00621338,
2752,-0.00610352,0.00615845,
2754,-0.0128174,0.0062561,
2756,0.0012207,0.00617065,
2758,-0.00183105,0.00613403,
2760,-0.00915527,0.00620117,
2762,-0.00244141,0.00621338,
2764,-0.00427246,0.00614014,
2766,0.00305176,0.00606079,
2768,-0.010376,0.00613403,
2770,-0.00549316,0.00614624,
2772,0.00488281,0.00612183,
2774,-0.00427246,0.00609131,
2776,-0.0152588,0.00621338,
2778,0.0012207,0.00612793,
2780,0.00366211,0.00605469,
2782,-0.00427246,0.00605469,
2784,-0.010376,0.00599365,
2786,-0.0012207,0.00596924,
2788,-0.00610352,0.00601196,
2790,-0.00854492,0.00604248,
2792,0.00183105,0.00600586,
2794,0.00549316,0.00598755,
2796,-0.00732422,0.00604858,
2798,-0.00671387,0.00609131,
2800,-0.00305176,0.00606689,
2802,-0.00244141,0.00605469,
2804,-0.00305176,0.00600586,
2806,-0.00793457,0.00598755,
2808,-0.0012207,0.00595703,
2810,-0.0128174,0.00598145,
2812,-0.0109863,0.00599365,
2814,0.00488281,0.00592651,
2816,0.00793457,0.00586548,
2818,-0.00427246,0.00588989,
2820,0.0012207,0.00571289,
2822,0.00366211,0.00570679,
2824,-0.00549316,0.00571289,
2826,0.00610352,0.00574341,
2828,-0.00732422,0.00579224,
2830,-0.00244141,0.00574341,
2832,0.00549316,0.00574341,
2834,-0.00549316,0.00563965,
2836,-0.010376,0.00571899,
2838,0.0219727,0.00588989,
2840,-0.010376,0.00588989,
2842,0.00549316,0.00593872,
2844,-0.00183105,0.00592651,
2846,-0.00305176,0.00592041,
2848,-0.00671387,0.00596924,
2850,-0.00854492,0.00601196,
2852,0.00244141,0.005896,
2854,-0.012207,0.00596924,
2856,-0.012207,0.00588989,
2858,-0.00976563,0.00593872,
2860,-0.00244141,0.00593262,
2862,0.00610352,0.00594482,
2864,0.00488281,0.00580444,
2866,-0.000610352,0.00565186,
2868,-0.0134277,0.00576782,
2870,0.00305176,0.00579224,
2872,0.0128174,0.00586548,
2874,-0.00610352,0.005896,
2876,-0.00671387,0.00588989,
2878,-0.00549316,0.00582886,
2880,-0.00549316,0.00587158,
2882,0.00915527,0.00585938,
2884,0.00427246,0.0057373,
2886,0.00305176,0.00567017,
2888,-0.00427246,0.00564575,
2890,-0.00305176,0.00565186,
2892,0.0158691,0.00580444,
2894,0.0012207,0.00574951,
2896,-0.000610352,0.00567627,
2898,-0.0115967,0.00578613,
2900,-0.00793457,0.00580444,
2902,-0.00671387,0.00585327,
2904,-0.00366211,0.00588379,
2906,-0.0012207,0.00578613,
2908,-0.0152588,0.00584717,
2910,-0.00488281,0.00582275,
2912,0.00244141,0.00582275,
2914,-0.0140381,0.00583496,
2916,0.010376,0.00588989,
2918,0.0012207,0.00584717,
2920,0.00305176,0.00584106,
2922,0.00915527,0.00588989,
2924,0.00854492,0.00593872,
2926,-0.00549316,0.00596924,
2928,-0.0115967,0.00603638,
2930,-0.00244141,0.00602417,
2932,-0.00610352,0.00606689,
2934,-0.0140381,0.00614624,
2936,-0.010376,0.00621338,
2938,-0.0183105,0.00636597,
2940,-0.000610352,0.00636597,
2942,-0.00366211,0.00637817,
2944,0.00671387,0.00633545,
2946,-0.00427246,0.00634155,
2948,0.00305176,0.00634766,
2950,0.0109863,0.00645142,
2952,0.0012207,0.00640259,
2954,-0.00549316,0.00632935,
2956,-0.00427246,0.00635986,
2958,0,0.00634155,
2960,-0.00488281,0.00629883,
2962,-0.00183105,0.00629272,
2964,-0.00854492,0.00633545,
2966,-0.000610352,0.00631104,
2968,-0.00732422,0.00628052,
2970,-0.00183105,0.0062439,
2972,0.00793457,0.00627441,
2974,-0.00854492,0.00631714,
2976,-0.0012207,0.00617676,
2978,0.00793457,0.0062439,
2980,-0.00671387,0.00627441,
2982,0.00183105,0.00625,
2984,-0.00671387,0.00621338,
2986,0.012207,0.00632324,
2988,0.00366211,0.00629883,
2990,-0.0183105,0.00639648,
2992,-0.00427246,0.0064209,
2994,-0.00671387,0.00643311,
2996,-0.00244141,0.00638428,
2998,0,0.00631714,
3000,-0.0170898,0.00645752,
3002,-0.010376,0.00653687,
3004,0,0.00650635,
3006,-0.0115967,0.00654297,
3008,0.000610352,0.00653687,
3010,0.000610352,0.00641479,
3012,-0.00610352,0.00636597,
3014,-0.00488281,0.00636597,
3016,0.0115967,0.00640259,
3018,-0.00671387,0.006427,
3020,-0.00549316,0.00646973,
3022,0.00671387,0.00650024,
3024,-0.00732422,0.00651855,
3026,-0.00183105,0.00647583,
3028,-0.00976563,0.00650024,
3030,-0.00976563,0.00657349,
3032,-0.00488281,0.00656738,
3034,-0.00732422,0.00658569,
3036,0.0012207,0.00649414,
3038,-0.00915527,0.00636597,
3040,0.000610352,0.00626831,
3042,0.0128174,0.00634155,
3044,0.00183105,0.00634155,
3046,-0.00915527,0.00640259,
3048,0.000610352,0.00634155,
3050,-0.0146484,0.00640259,
3052,-0.0012207,0.00639038,
3054,-0.00610352,0.00632935,
3056,-0.00793457,0.00628662,
3058,-0.0109863,0.00629883,
3060,-0.00732422,0.00634766,
3062,0.00244141,0.00631104,
3064,-0.000610352,0.00626831,
3066,-0.00732422,0.00633545,
3068,0.000610352,0.00620728,
3070,-0.00305176,0.00620728,
3072,0.000610352,0.00608521,
3074,-0.00854492,0.00610962,
3076,-0.00244141,0.00606689,
3078,-0.000610352,0.00601807,
3080,-0.00488281,0.00601196,
3082,0.00244141,0.00594482,
3084,-0.000610352,0.0059082,
3086,0.00915527,0.00596924,
3088,-0.00671387,0.00599365,
3090,-0.010376,0.00606689,
3092,0.0115967,0.00602417,
3094,-0.00305176,0.00604248,
3096,-0.00366211,0.006073,
3098,-0.0012207,0.00596924,
3100,-0.00915527,0.00598145,
3102,0.0012207,0.00592651,
3104,-0.00549316,0.00594482,
3106,-0.00732422,0.00600586,
3108,-0.00244141,0.00587769,
3110,-0.00488281,0.00587769,
3112,-0.00366211,0.00588989,
3114,-0.00915527,0.00584106,
3116,0.00854492,0.00582275,
3118,0.0158691,0.00596924,
3120,-0.00671387,0.00600586,
3122,-0.00488281,0.00596313,
3124,0.00732422,0.00595093,
3126,0.00427246,0.00593872,
3128,-0.00488281,0.00587158,
3130,-0.00671387,0.00591431,
3132,-0.00549316,0.0059082,
3134,-0.00976563,0.00586548,
3136,0.00244141,0.00578613,
3138,-0.00366211,0.00563965,
3140,-0.0152588,0.00578613,
3142,0.00244141,0.00577393,
3144,0.00305176,0.0057373,
3146,-0.00244141,0.00571899,
3148,-0.0012207,0.00570068,
3150,0.00183105,0.00560913,
3152,0,0.00559692,
3154,-0.00976563,0.00563965,
3156,0.00244141,0.00562134,
3158,-0.00488281,0.00567017,
3160,-0.012207,0.00574341,
3162,0.0189209,0.00591431,
3164,-0.012207,0.00595093,
3166,-0.0140381,0.00608521,
3168,0.00305176,0.00604248,
3170,-0.00915527,0.00611572,
3172,-0.000610352,0.00604248,
3174,-0.00854492,0.00604248,
3176,0.00610352,0.00609131,
3178,-0.0140381,0.00615234,
3180,0,0.00608521,
3182,-0.0012207,0.0060791,
3184,-0.00488281,0.00606079,
3186,0.000610352,0.00594482,
3188,-0.00488281,0.00595703,
3190,0.000610352,0.00578003,
3192,-0.00732422,0.00581055,
3194,-0.00366211,0.00578003,
3196,0.000610352,0.00576172,
3198,-0.00244141,0.00578613,
3200,-0.00732422,0.00568848,
3202,-0.000610352,0.00559082,
3204,-0.00244141,0.00561523,
3206,0.00732422,0.00557251,
3208,-0.0134277,0.00570068,
3210,0.0012207,0.00570679,
3212,-0.00305176,0.00567627,
3214,0.00183105,0.00564575,
3216,-0.0012207,0.00554199,
3218,-0.00244141,0.00549927,
3220,-0.000610352,0.00545044,
3222,0.000610352,0.0053894,
3224,-0.0183105,0.00549927,
3226,-0.00427246,0.00552368,
3228,0.000610352,0.00543213,
3230,-0.00366211,0.00537109,
3232,-0.0146484,0.00546875,
3234,-0.0115967,0.00551147,
3236,0.00671387,0.00556641,
3238,-0.00549316,0.00552979,
3240,-0.010376,0.00562744,
3242,0.00427246,0.00554199,
3244,0.00427246,0.00556641,
3246,0.00183105,0.00549316,
3248,0.00915527,0.00557861,
3250,0.00732422,0.00550537,
3252,-0.0109863,0.00560303,
3254,-0.0134277,0.00567627,
3256,0.0170898,0.00576782,
3258,0,0.00565796,
3260,-0.0244141,0.00582886,
3262,-0.00854492,0.00588989,
3264,-0.0115967,0.00599976,
3266,-0.00366211,0.00596313,
3268,-0.00366211,0.00599365,
3270,-0.00366211,0.00599976,
3272,0.000610352,0.00599976,
3274,-0.00976563,0.00601196,
3276,0,0.00598755,
3278,-0.00244141,0.00600586,
3280,0.00366211,0.00599365,
3282,0.00549316,0.00602417,
3284,-0.0152588,0.00617065,
3286,0.00305176,0.00610962,
3288,0.0012207,0.00605469,
3290,-0.00671387,0.00601807,
3292,0.00732422,0.00597534,
3294,-0.00610352,0.00600586,
3296,-0.00671387,0.00603638,
3298,-0.00183105,0.00604248,
3300,-0.00427246,0.00599365,
3302,-0.00549316,0.00603638,
3304,-0.00549316,0.00603638,
3306,0.00488281,0.00601196,
3308,-0.00915527,0.0060791,
3310,-0.0109863,0.00614014,
3312,-0.00671387,0.00617065,
3314,-0.00366211,0.00611572,
3316,0.00854492,0.00611572,
3318,-0.0146484,0.00610352,
3320,-0.0164795,0.00620117,
3322,0.0146484,0.00629883,
3324,-0.0109863,0.00633545,
3326,-0.00366211,0.00632935,
3328,-0.00183105,0.00629883,
3330,-0.0152588,0.00638428,
3332,-0.00244141,0.00635376,
3334,-0.00610352,0.00631714,
3336,0.000610352,0.00629883,
3338,-0.00244141,0.00628662,
3340,-0.0109863,0.0062439,
3342,0.00427246,0.00626221,
3344,0.000610352,0.00623779,
3346,-0.0012207,0.00622559,
3348,0,0.00621338,
3350,-0.0115967,0.00631104,
3352,0.00427246,0.00635376,
3354,0.00244141,0.00628052,
3356,-0.00671387,0.00632324,
3358,-0.00671387,0.00634155,
3360,-0.0158691,0.00637817,
3362,0.00671387,0.0062561,
3364,-0.0128174,0.00626221,
3366,-0.000610352,0.00612793,
3368,-0.00610352,0.00615845,
3370,-0.00793457,0.00614624,
3372,0.00244141,0.00616455,
3374,0,0.0060791,
3376,-0.00671387,0.00608521,
3378,-0.00854492,0.00603027,
3380,-0.00549316,0.00608521,
3382,0.00366211,0.00610962,
3384,-0.0109863,0.00617065,
3386,0,0.00616455,
3388,0.0128174,0.0062439,
3390,-0.0238037,0.00647583,
3392,0.00976563,0.00650024,
3394,0.00488281,0.00651245,
3396,0.000610352,0.00651245,
3398,0.00183105,0.00650635,
3400,0.00366211,0.00646973,
3402,0.000610352,0.00646973,
3404,-0.0146484,0.0065918,
3406,-0.000610352,0.00652466,
3408,-0.00244141,0.00641479,
3410,-0.00183105,0.0064209,
3412,0.00305176,0.0064209,
3414,-0.00610352,0.00646362,
3416,-0.00976563,0.00654907,
3418,-0.000610352,0.00653076,
3420,-0.0012207,0.00653687,
3422,0.00610352,0.0065918,
3424,-0.0164795,0.00657349,
3426,-0.00671387,0.0065979,
3428,0.000610352,0.0065979,
3430,-0.00793457,0.00664063,
3432,0.000610352,0.00650024,
3434,-0.0140381,0.00652466,
3436,-0.00671387,0.00652466,
3438,-0.00244141,0.00649414,
3440,-0.00244141,0.00641479,
3442,-0.00366211,0.00640869,
3444,0.0012207,0.00637817,
3446,-0.00549316,0.00641479,
3448,0.00183105,0.00634155,
3450,-0.000610352,0.00627441,
3452,0.00976563,0.00626221,
3454,-0.00305176,0.00615845,
3456,-0.00610352,0.00604858,
3458,0.00915527,0.00614014,
3460,-0.00976563,0.00599365,
3462,0.00549316,0.00596313,
3464,-0.00732422,0.00592041,
3466,0.000610352,0.00588989,
3468,-0.00732422,0.00592651,
3470,0.0128174,0.00601807,
3472,0.00671387,0.0060791,
3474,-0.0164795,0.00614624,
3476,-0.010376,0.00625,
3478,0.00244141,0.00625,
3480,0.00183105,0.00623169,
3482,-0.0115967,0.00629272,
3484,-0.0201416,0.00634155,
3486,-0.00671387,0.00637817,
3488,0.00976563,0.00646362,
3490,-0.00976563,0.00649414,
3492,-0.000610352,0.006427,
3494,0.00976563,0.00646362,
3496,0.00183105,0.00641479,
3498,0.00610352,0.00645752,
3500,-0.010376,0.00651855,
3502,0.00854492,0.00654907,
3504,-0.00549316,0.00654907,
3506,0.00244141,0.00652466,
3508,-0.00183105,0.00645142,
3510,0.00366211,0.00637817,
3512,0.00488281,0.00635986,
3514,-0.0012207,0.00633545,
3516,0.00915527,0.00634155,
3518,0.00488281,0.0062439,
3520,-0.00732422,0.00615234,
3522,0.00366211,0.00604248,
3524,-0.00671387,0.00599976,
3526,-0.00183105,0.00598145,
3528,-0.00976563,0.00606079,
3530,-0.00793457,0.00598755,
3532,0.0012207,0.00597534,
3534,-0.0109863,0.00602417,
3536,0,0.00601807,
3538,0.010376,0.00609741,
3540,-0.00610352,0.00604858,
3542,-0.00244141,0.00603027,
3544,0.00793457,0.00610352,
3546,-0.00488281,0.00614014,
3548,-0.00305176,0.00617065,
3550,-0.00793457,0.00613403,
3552,0.0012207,0.00610352,
3554,-0.00793457,0.00615845,
3556,-0.010376,0.00619507,
3558,-0.00183105,0.00614624,
3560,-0.00183105,0.00600586,
3562,0.00732422,0.00601196,
3564,-0.00549316,0.00593872,
3566,0,0.00593262,
3568,0.0012207,0.00588379,
3570,-0.0012207,0.00581665,
3572,0.00549316,0.00584717,
3574,-0.00305176,0.00587769,
3576,-0.00488281,0.00585938,
3578,-0.00366211,0.00581055,
3580,-0.00793457,0.00583496,
3582,0.00610352,0.00585938,
3584,-0.00305176,0.00578003,
3586,-0.00366211,0.00581665,
3588,-0.00244141,0.00571289,
3590,-0.00244141,0.00549927,
3592,0.00366211,0.00543823,
3594,0,0.0053894,
3596,0.0012207,0.00539551,
3598,-0.00366211,0.00541382,
3600,-0.0012207,0.0053894,
3602,0.010376,0.00548706,
3604,0.00305176,0.00537109,
3606,-0.0152588,0.00551758,
3608,-0.00610352,0.0055542,
3610,-0.00976563,0.00563354,
3612,0.000610352,0.00560913,
3614,0.0012207,0.0055603,
3616,-0.00854492,0.0055481,
3618,-0.0146484,0.00568848,
3620,-0.00854492,0.00576172,
3622,0.00427246,0.00574341,
3624,-0.0177002,0.00575562,
3626,-0.00305176,0.00571899,
3628,0.00305176,0.00574341,
3630,-0.00732422,0.0057373,
3632,-0.00671387,0.00579834,
3634,-0.00732422,0.0057312,
3636,-0.00183105,0.00568237,
3638,0.000610352,0.00566406,
3640,-0.00793457,0.00571899,
3642,-0.000610352,0.00568848,
3644,-0.0146484,0.00582275,
3646,-0.00183105,0.00578613,
3648,-0.00549316,0.00582275,
3650,-0.0146484,0.00596313,
3652,0.00549316,0.00592041,
3654,-0.00427246,0.00593262,
3656,-0.00366211,0.0059082,
3658,0.000610352,0.00582275,
3660,-0.00793457,0.00580444,
3662,0.00976563,0.00584717,
3664,-0.00610352,0.00583496,
3666,0.00488281,0.00587769,
3668,0.000610352,0.00581055,
3670,-0.00976563,0.00578003,
3672,-0.00183105,0.0057312,
3674,0.0012207,0.00557861,
3676,-0.00915527,0.00556641,
3678,-0.0158691,0.00570068,
3680,-0.0115967,0.00579834,
3682,-0.000610352,0.00568848,
3684,-0.0189209,0.00567627,
3686,-0.00854492,0.00569458,
3688,-0.00793457,0.00567627,
3690,-0.0128174,0.00570679,
3692,0.00305176,0.0057312,
3694,-0.00183105,0.00565186,
3696,-0.00854492,0.00571899,
3698,-0.00183105,0.00567627,
3700,-0.0012207,0.00558472,
3702,-0.00244141,0.00552368,
3704,-0.00305176,0.00549927,
3706,0.0012207,0.00548706,
3708,-0.00549316,0.00552368,
3710,-0.00610352,0.0055481,
3712,0.00854492,0.00558472,
3714,-0.00549316,0.00562744,
3716,-0.0012207,0.0055481,
3718,0,0.00549927,
3720,-0.00305176,0.00545654,
3722,0.0012207,0.00543213,
3724,-0.00244141,0.0053894,
3726,-0.00244141,0.00539551,
3728,-0.00244141,0.00532227,
3730,-0.0128174,0.00537109,
3732,0.0170898,0.00552979,
3734,-0.00549316,0.00547485,
3736,-0.0164795,0.00563965,
3738,-0.00732422,0.00560913,
3740,-0.000610352,0.0055542,
3742,0.00427246,0.00557251,
3744,-0.00854492,0.00557861,
3746,-0.0146484,0.00567627,
3748,-0.00732422,0.00571899,
3750,-0.00549316,0.00569458,
3752,-0.00244141,0.00570679,
3754,-0.00793457,0.00570679,
3756,-0.00305176,0.00563354,
3758,-0.00183105,0.00563354,
3760,-0.00244141,0.00563965,
3762,-0.00183105,0.00558472,
3764,0,0.00552979,
3766,0.000610352,0.00553589,
3768,-0.0109863,0.00563354,
3770,0.00427246,0.00566406,
3772,0.00549316,0.00566406,
3774,-0.00793457,0.00571289,
3776,-0.00854492,0.00574951,
3778,-0.00427246,0.00575562,
3780,-0.000610352,0.00568237,
3782,0,0.00562134,
3784,-0.00793457,0.00567017,
3786,0.00915527,0.0057251,
3788,-0.00427246,0.00574341,
3790,-0.00244141,0.00574341,
3792,0.0115967,0.00582275,
3794,0.00854492,0.0059082,
3796,0.00671387,0.00596313,
3798,0.00305176,0.00595703,
3800,-0.0146484,0.00609131,
3802,0.0012207,0.00599976,
3804,0.00793457,0.00604858,
3806,0.0012207,0.0059082,
3808,-0.0286865,0.00613403,
3810,-0.00427246,0.0060791,
3812,0.00610352,0.00613403,
3814,-0.00854492,0.00620728,
3816,-0.00854492,0.00620728,
3818,-0.00671387,0.00612793,
3820,-0.00793457,0.00612183,
3822,0.00244141,0.00610352,
3824,-0.0109863,0.00603638,
3826,-0.00549316,0.00606079,
3828,-0.00610352,0.00609131,
3830,-0.0140381,0.00615845,
3832,-0.00671387,0.00615845,
3834,-0.00366211,0.00612183,
3836,0.00305176,0.00613403,
3838,-0.00488281,0.00617676,
3840,-0.00305176,0.00612793,
3842,0.00854492,0.00620728,
3844,-0.00976563,0.00615845,
3846,0.00671387,0.00620728,
3848,-0.00366211,0.00618896,
3850,0.00610352,0.00610352,
3852,-0.00610352,0.00610962,
3854,-0.0140381,0.00620728,
3856,-0.00244141,0.00619507,
3858,-0.0012207,0.00620117,
3860,-0.00976563,0.00621948,
3862,-0.0012207,0.00613403,
3864,-0.00427246,0.00611572,
3866,-0.00366211,0.00610352,
3868,-0.00183105,0.00611572,
3870,0,0.00601807,
3872,-0.000610352,0.00600586,
3874,-0.00183105,0.00601196,
3876,0.000610352,0.00592651,
3878,-0.00732422,0.00584106,
3880,-0.00549316,0.00578003,
3882,0.00488281,0.00582275,
3884,0.00366211,0.00567017,
3886,0,0.00558472,
3888,0.012207,0.00562744,
3890,0.010376,0.00560303,
3892,-0.00976563,0.00567017,
3894,-0.00305176,0.00568237,
3896,0.00732422,0.00567017,
3898,0.00244141,0.00567627,
3900,-0.0140381,0.00580444,
3902,-0.010376,0.00588379,
3904,-0.0134277,0.00598755,
3906,-0.00183105,0.00599365,
3908,-0.0280762,0.00621948,
3910,-0.00732422,0.00623169,
3912,0.010376,0.00625,
3914,-0.0115967,0.00631104,
3916,-0.012207,0.0064209,
3918,-0.00427246,0.00646362,
3920,-0.00671387,0.00650024,
3922,0.00244141,0.00651245,
3924,-0.0012207,0.00650024,
3926,-0.00610352,0.00653687,
3928,-0.00671387,0.00657959,
3930,-0.010376,0.00655518,
3932,-0.00549316,0.00643921,
3934,-0.00732422,0.00645752,
3936,-0.00366211,0.00632935,
3938,0.000610352,0.00626221,
3940,-0.00671387,0.00632324,
3942,-0.0109863,0.00639038,
3944,-0.00427246,0.00634766,
3946,0.0115967,0.00631714,
3948,-0.00305176,0.00627441,
3950,-0.0152588,0.00637207,
3952,-0.00305176,0.00637817,
3954,-0.0128174,0.006427,
3956,-0.00915527,0.00648804,
3958,0.00366211,0.00650635,
3960,-0.000610352,0.00648804,
3962,-0.0115967,0.00658569,
3964,-0.0012207,0.0065979,
3966,0.00915527,0.00668335,
3968,-0.00366211,0.00661011,
3970,-0.00793457,0.00664673,
3972,0.00305176,0.00662231,
3974,-0.00427246,0.00658569,
3976,-0.00976563,0.0065979,
3978,-0.00488281,0.006604,
3980,-0.00976563,0.00669556,
3982,-0.00427246,0.00673828,
3984,-0.00183105,0.00667725,
3986,-0.00183105,0.006604,
3988,0,0.00656128,
3990,-0.00305176,0.00656738,
3992,0.00732422,0.00652466,
3994,0.0115967,0.00655518,
3996,0.00427246,0.00653076,
3998,-0.00183105,0.00651855,
4000,-0.00793457,0.00645142,
4002,0.00793457,0.00651855,
4004,-0.00549316,0.00649414,
4006,-0.00183105,0.00650024,
4008,-0.00549316,0.00626831,
4010,-0.012207,0.00634766,
4012,-0.0115967,0.00640259,
4014,-0.000610352,0.00632324,
4016,0.00549316,0.00629272,
4018,-0.0183105,0.00640869,
4020,-0.00427246,0.00637207,
4022,0.0128174,0.00647583,
4024,-0.00976563,0.00646362,
4026,-0.00610352,0.00646973,
4028,0.0177002,0.00658569,
4030,-0.00427246,0.00648804,
4032,0.00366211,0.00645752,
4034,0.0012207,0.00643311,
4036,0.00427246,0.00644531,
4038,-0.00244141,0.0064209,
4040,0.00549316,0.00644531,
4042,0,0.00635986,
4044,-0.00244141,0.00628662,
4046,-0.020752,0.006427,
4048,0.00671387,0.00645752,
4050,-0.020752,0.006604,
4052,-0.0183105,0.00672607,
4054,-0.00793457,0.00666504,
4056,-0.00671387,0.00670776,
4058,-0.0170898,0.00686646,
4060,-0.010376,0.00687256,
4062,0.00549316,0.00691528,
4064,0.010376,0.00697632,
4066,0.0115967,0.00705566,
4068,-0.0201416,0.00723877,
4070,0.0292969,0.00753174,
4072,-0.00793457,0.00760498,
4074,-0.00305176,0.00761719,
4076,-0.0115967,0.00772705,
4078,-0.0292969,0.00794678,
4080,-0.0012207,0.00790405,
4082,0.00366211,0.00789185,
4084,-0.0152588,0.00800781,
4086,-0.0140381,0.00814819,
4088,0.0115967,0.00814209,
4090,-0.00305176,0.00806885,
4092,0.00549316,0.00802612,
4094,0.0164795,0.0081604,
4096,0.0128174,0.00821533,
4098,-0.0286865,0.00847778,
4100,-0.00183105,0.00835571,
4102,-0.0158691,0.00841064,
4104,-0.0140381,0.00841675,
4106,-0.0421143,0.00881958,
4108,-0.0390625,0.00892944,
4110,-0.00854492,0.00894165,
4112,-0.0170898,0.00900879,
4114,-0.0317383,0.00921021,
4116,-0.0402832,0.00949097,
4118,-0.010376,0.009552,
4120,0.00915527,0.00957642,
4122,-0.010376,0.00965576,
4124,0.00244141,0.00966797,
4126,0.0335693,0.00994263,
4128,0.0012207,0.0098877,
4130,-0.0390625,0.0101746,
4132,0.0286865,0.0104065,
4134,-0.00549316,0.0103882,
4136,0.000610352,0.0103577,
4138,0.00488281,0.0104004,
4140,-0.010376,0.010437,
4142,-0.0305176,0.0106323,
4144,-0.012207,0.0107117,
4146,-0.0152588,0.0107483,
4148,-0.00854492,0.0108032,
4150,-0.00488281,0.0106995,
4152,-0.0177002,0.0108459,
4154,-0.0231934,0.0109497,
4156,-0.0170898,0.0110291,
4158,0.00854492,0.0110779,
4160,-0.0390625,0.0114624,
4162,-0.00854492,0.0114319,
4164,0.0012207,0.0114319,
4166,-0.0256348,0.0115967,
4168,-0.00732422,0.0116333,
4170,-0.00183105,0.0115723,
4172,-0.0238037,0.0117798,
4174,0.0201416,0.0119385,
4176,0.00305176,0.0118713,
4178,-0.0128174,0.0119507,
4180,-0.0341797,0.0121948,
4182,0.0189209,0.0123413,
4184,-0.00366211,0.0123596,
4186,-0.0189209,0.0125305,
4188,-0.0274658,0.0128052,
4190,-0.0262451,0.0130371,
4192,-0.00976563,0.0130615,
4194,-0.0213623,0.0131592,
4196,-0.00427246,0.0131592,
4198,-0.0164795,0.0133057,
4200,-0.00610352,0.0132874,
4202,-0.0012207,0.0132202,
4204,-0.0152588,0.0133179,
4206,-0.010376,0.0134033,
4208,-0.00427246,0.0133911,
4210,-0.00183105,0.0132874,
4212,0.0164795,0.0133362,
4214,-0.00793457,0.0134094,
4216,0.00488281,0.0134033,
4218,-0.0146484,0.0133667,
4220,-0.0195313,0.0135193,
4222,0.00183105,0.0134094,
4224,-0.00244141,0.0133362,
4226,-0.0128174,0.0134033,
4228,-0.0177002,0.0134033,
4230,-0.0292969,0.0136536,
4232,-0.0164795,0.0137817,
4234,0.0134277,0.0139038,
4236,-0.00488281,0.0139099,
4238,-0.00915527,0.0139771,
4240,0,0.0139221,
4242,0.00732422,0.0139954,
4244,-0.0238037,0.014209,
4246,-0.0012207,0.0140137,
4248,0,0.0139465,
4250,-0.0170898,0.0139099,
4252,0.00305176,0.0137573,
4254,-0.0109863,0.0137878,
4256,-0.0219727,0.0139404,
4258,-0.00671387,0.0138367,
4260,0.0183105,0.013916,
4262,0.00793457,0.0139404,
4264,-0.00488281,0.0138855,
4266,0.0158691,0.0139282,
4268,-0.0201416,0.0139282,
4270,0.00366211,0.0136719,
4272,-0.00427246,0.0136353,
4274,-0.0128174,0.0137329,
4276,-0.0183105,0.0138,
4278,-0.0335693,0.0138428,
4280,-0.0152588,0.0139832,
4282,0.00793457,0.0140259,
4284,-0.0238037,0.0141113,
4286,-0.00732422,0.0140442,
4288,0.0134277,0.0140625,
4290,0.0164795,0.0141968,
4292,0.0231934,0.0143738,
4294,-0.0305176,0.0145142,
4296,-0.0177002,0.014563,
4298,0.0012207,0.0142883,
4300,-0.00732422,0.0143433,
4302,-0.0140381,0.014325,
4304,-0.0244141,0.0144287,
4306,-0.0744629,0.0147522,
4308,-0.00732422,0.0144348,
4310,0.000610352,0.0143555,
4312,-0.00610352,0.0142456,
4314,-0.0244141,0.0141724,
4316,0.00732422,0.0138428,
4318,0.00915527,0.0138306,
4320,-0.0012207,0.0137512,
4322,0.0262451,0.0139099,
4324,0.00488281,0.0139343,
4326,-0.0286865,0.0138855,
4328,-0.00732422,0.0139465,
4330,-0.00427246,0.0135986,
4332,-0.0164795,0.0134766,
4334,-0.022583,0.0136475,
4336,-0.0134277,0.0137756,
4338,-0.0244141,0.0139709,
4340,-0.000610352,0.0138733,
4342,0.0115967,0.0136841,
4344,0.0134277,0.0136963,
4346,-0.0170898,0.0137146,
4348,0.00366211,0.0136658,
4350,-0.00549316,0.0136719,
4352,0.0012207,0.0135071,
4354,-0.0292969,0.0135681,
4356,-0.0268555,0.0136658,
4358,-0.0170898,0.0137512,
4360,-0.022583,0.0135864,
4362,-0.0152588,0.0136536,
4364,-0.0140381,0.0137817,
4366,-0.00244141,0.0135498,
4368,0.0012207,0.0134888,
4370,0.0170898,0.0136414,
4372,0.022583,0.0136292,
4374,0.0012207,0.0134399,
4376,0.0195313,0.0136047,
4378,-0.00305176,0.0135071,
4380,-0.00671387,0.0132324,
4382,0.0378418,0.0134216,
4384,-0.00427246,0.0134277,
4386,0.0158691,0.0133972,
4388,-0.0445557,0.0135681,
4390,-0.00976563,0.0134033,
4392,0.0268555,0.0135742,
4394,-0.0170898,0.0135315,
4396,-0.020752,0.0136963,
4398,-0.00793457,0.0136108,
4400,-0.0213623,0.0137634,
4402,-0.0317383,0.0140686,
4404,-0.0402832,0.0143188,
4406,-0.00366211,0.0142517,
4408,-0.00976563,0.0143066,
4410,-0.0262451,0.0145508,
4412,0,0.014386,
4414,-0.0244141,0.0145508,
4416,-0.0012207,0.0145142,
4418,-0.0134277,0.014502,
4420,0.012207,0.0144287,
4422,0.00976563,0.0145081,
4424,-0.0134277,0.0146179,
4426,0.00305176,0.0145203,
4428,-0.00610352,0.0144043,
4430,-0.00671387,0.0141785,
4432,0.0201416,0.0142151,
4434,-0.00793457,0.0141602,
4436,-0.00183105,0.0141296,
4438,0.00183105,0.0140564,
4440,-0.0152588,0.014209,
4442,0.0134277,0.01427,
4444,-0.000610352,0.0140381,
4446,-0.0109863,0.0141357,
4448,0.0012207,0.0141479,
4450,-0.0152588,0.0141296,
4452,-0.00732422,0.0141724,
4454,-0.00244141,0.0140869,
4456,-0.000610352,0.0138733,
4458,0,0.0138062,
4460,-0.00915527,0.0137146,
4462,0.00976563,0.0137329,
4464,-0.00976563,0.0137817,
4466,0.0128174,0.0137512,
4468,-0.00793457,0.0136292,
4470,-0.0128174,0.0137207,
4472,0.00610352,0.013739,
4474,-0.00793457,0.0136902,
4476,-0.010376,0.0136108,
4478,-0.0183105,0.0134583,
4480,0.00244141,0.0133301,
4482,0.00183105,0.013269,
4484,-0.0244141,0.0132751,
4486,-0.0250244,0.0134521,
4488,0.00854492,0.0134033,
4490,-0.00854492,0.013324,
4492,0.0115967,0.013208,
4494,-0.000610352,0.0129089,
4496,0.00427246,0.0127747,
4498,-0.0219727,0.0129822,
4500,0.0012207,0.0129211,
4502,0.00976563,0.0128784,
4504,-0.00183105,0.0126526,
4506,-0.0335693,0.0122437,
4508,0.020752,0.0123779,
4510,-0.010376,0.0124756,
4512,-0.020752,0.0126221,
4514,-0.00366211,0.0124146,
4516,-0.00183105,0.0123596,
4518,0.00549316,0.012323,
4520,-0.00610352,0.0123718,
4522,-0.00427246,0.0121521,
4524,-0.0201416,0.0123047,
4526,-0.00732422,0.0120911,
4528,0.00366211,0.0120544,
4530,-0.0366211,0.0123779,
4532,0.0170898,0.012384,
4534,-0.0219727,0.0123779,
4536,-0.00671387,0.0123108,
4538,0.00427246,0.0121094,
4540,-0.0244141,0.0123474,
4542,0.00610352,0.0122925,
4544,0.010376,0.012262,
4546,0.0012207,0.0121033,
4548,-0.00244141,0.0120911,
4550,-0.00305176,0.0120667,
4552,0.00793457,0.0121338,
4554,-0.00915527,0.0119324,
4556,0.00183105,0.0116821,
4558,-0.00671387,0.0115784,
4560,-0.020752,0.0115601,
4562,0.00183105,0.0114258,
4564,-0.00183105,0.0113037,
4566,-0.00610352,0.0113403,
4568,0.00793457,0.0114075,
4570,0.010376,0.0113403,
4572,-0.0219727,0.0113342,
4574,0.00427246,0.0113647,
4576,-0.00793457,0.0112488,
4578,0.00793457,0.0112976,
4580,0.00427246,0.0112732,
4582,-0.00549316,0.0109497,
4584,-0.0262451,0.0111694,
4586,0.0164795,0.0111755,
4588,0.0146484,0.0108765,
4590,-0.0238037,0.0110168,
4592,0.00549316,0.0108032,
4594,-0.0152588,0.0107849,
4596,-0.0195313,0.0107727,
4598,0.00854492,0.0107788,
4600,0.00610352,0.0106262,
4602,-0.00610352,0.0103699,
4604,-0.0384521,0.0103516,
4606,0.00854492,0.0104004,
4608,0.00488281,0.0103516,
4610,-0.0115967,0.0102051,
4612,0.000610352,0.0102112,
4614,-0.0244141,0.0102112,
4616,-0.0250244,0.0104492,
4618,0.00305176,0.0103455,
4620,-0.00183105,0.0102417,
4622,-0.00366211,0.0101807,
4624,0,0.0100464,
4626,-0.0244141,0.01026,
4628,0.0134277,0.0103333,
4630,0.0109863,0.010376,
4632,0.00366211,0.0102112,
4634,0.00305176,0.0101624,
4636,-0.00244141,0.0101685,
4638,0.00610352,0.0102112,
4640,0.0012207,0.0100708,
4642,-0.00427246,0.00997925,
4644,0.0109863,0.010083,
4646,-0.00427246,0.0100159,
4648,-0.00610352,0.0100647,
4650,-0.00915527,0.0100037,
4652,0.00915527,0.010022,
4654,-0.00244141,0.010022,
4656,0.00305176,0.0100464,
4658,-0.0140381,0.0101868,
4660,-0.0183105,0.0102783,
4662,0.00915527,0.0102722,
4664,0.00427246,0.0102173,
4666,-0.022583,0.0103149,
4668,-0.00488281,0.0102844,
4670,-0.0128174,0.0102844,
4672,0.00488281,0.0102722,
4674,-0.00732422,0.0102661,
4676,-0.00732422,0.0102356,
4678,-0.00244141,0.0100769,
4680,-0.0372314,0.0104248,
4682,0.0250244,0.0106567,
4684,0.0158691,0.0105713,
4686,-0.00610352,0.0103821,
4688,-0.0109863,0.0104065,
4690,-0.0152588,0.0104736,
4692,-0.00671387,0.0104248,
4694,0.00244141,0.0104431,
4696,0,0.0104004,
4698,-0.00244141,0.0102051,
4700,-0.0244141,0.010437,
4702,-0.00976563,0.010437,
4704,-0.0158691,0.0105774,
4706,0.000610352,0.0102478,
4708,0.00915527,0.0101318,
4710,-0.00244141,0.0100525,
4712,-0.00976563,0.00994263,
4714,0.00244141,0.00993042,
4716,-0.00366211,0.00994873,
4718,-0.00305176,0.00992432,
4720,0.00976563,0.00996094,
4722,0.0134277,0.0100525,
4724,-0.010376,0.00995483,
4726,0.00366211,0.00991821,
4728,0.020752,0.0100891,
4730,-0.0128174,0.00985107,
4732,-0.00366211,0.0097168,
4734,-0.00854492,0.00958252,
4736,0.00976563,0.00961304,
4738,0.00244141,0.00959473,
4740,-0.0390625,0.00974121,
4742,0.00549316,0.00973511,
4744,-0.0146484,0.00977783,
4746,-0.00244141,0.00979004,
4748,0.00488281,0.00981445,
4750,-0.0140381,0.00992432,
4752,-0.000610352,0.00985107,
4754,-0.00183105,0.00977783,
4756,-0.00366211,0.00979614,
4758,0.0012207,0.00974121,
4760,-0.00183105,0.009552,
4762,-0.00732422,0.00960693,
4764,-0.00854492,0.00967407,
4766,0.00732422,0.00968628,
4768,0.00244141,0.00963135,
4770,0.00488281,0.00957642,
4772,0.0109863,0.00946655,
4774,-0.00854492,0.00950928,
4776,-0.0213623,0.00964355,
4778,0.00610352,0.00962524,
4780,-0.00732422,0.00965576,
4782,-0.00915527,0.00969238,
4784,-0.0134277,0.00956421,
4786,-0.00793457,0.00947876,
4788,-0.0170898,0.00950317,
4790,-0.0134277,0.00939941,
4792,0.00610352,0.00940552,
4794,0.0177002,0.00942993,
4796,0.00305176,0.00926514,
4798,-0.00793457,0.00925903,
4800,-0.00305176,0.00922852,
4802,0.00244141,0.00919189,
4804,-0.00610352,0.00886841,
4806,0.00671387,0.0088501,
4808,-0.00183105,0.00881958,
4810,-0.0128174,0.00883179,
4812,0.00854492,0.00891113,
4814,-0.0115967,0.00878296,
4816,0.0201416,0.00873413,
4818,-0.00244141,0.00872803,
4820,0,0.00870972,
4822,-0.0158691,0.00883179,
4824,-0.0109863,0.00894165,
4826,-0.00549316,0.00875244,
4828,0.00183105,0.00863647,
4830,-0.022583,0.00875244,
4832,-0.0128174,0.00884399,
4834,-0.0128174,0.00894165,
4836,0.00915527,0.00900879,
4838,0.00183105,0.00896606,
4840,-0.0170898,0.00912476,
4842,0.00244141,0.00910645,
4844,0.0128174,0.00912476,
4846,-0.00427246,0.00912476,
4848,0.0158691,0.00922241,
4850,-0.00549316,0.00918579,
4852,0.00305176,0.00912476,
4854,0.00183105,0.00911865,
4856,-0.00854492,0.00917358,
4858,0.010376,0.00913696,
4860,0.0201416,0.00915527,
4862,-0.0335693,0.00939941,
4864,-0.00671387,0.00942383,
4866,0.00610352,0.00925903,
4868,-0.0213623,0.00942383,
4870,-0.0012207,0.00930786,
4872,-0.0134277,0.00939331,
4874,-0.00610352,0.0093811,
4876,-0.00732422,0.0093811,
4878,-0.0115967,0.00947266,
4880,0.0170898,0.00927124,
4882,-0.00976563,0.00911865,
4884,0.00366211,0.00899658,
4886,-0.00610352,0.00899658,
4888,-0.0140381,0.0090271,
4890,-0.00305176,0.00890503,
4892,0.00732422,0.00891113,
4894,-0.00915527,0.00897827,
4896,-0.0189209,0.00916748,
4898,0.0250244,0.00939331,
4900,0.00610352,0.00921021,
4902,-0.00976563,0.00921021,
4904,-0.0109863,0.00916138,
4906,0.00976563,0.00925293,
4908,0.00427246,0.0092041,
4910,-0.0170898,0.00935059,
4912,-0.0170898,0.00942383,
4914,0.012207,0.00952148,
4916,0.0012207,0.00949707,
4918,-0.0170898,0.00963745,
4920,-0.00305176,0.00957031,
4922,0.0140381,0.00957642,
4924,-0.00244141,0.00949707,
4926,-0.00732422,0.00953369,
4928,-0.00915527,0.00941772,
4930,-0.0305176,0.00959473,
4932,-0.000610352,0.00956421,
4934,-0.00183105,0.00949707,
4936,-0.0274658,0.00967407,
4938,-0.0140381,0.00979004,
4940,-0.00732422,0.00947266,
4942,-0.00305176,0.00944824,
4944,0.00732422,0.009375,
4946,0.00427246,0.00939331,
4948,-0.0164795,0.00950928,
4950,-0.00854492,0.00945435,
4952,0.00610352,0.00950928,
4954,0.00366211,0.00952759,
4956,-0.00427246,0.00953369,
4958,-0.00976563,0.00961914,
4960,-0.00366211,0.00963745,
4962,-0.00366211,0.00960083,
4964,-0.00366211,0.009552,
4966,0.00915527,0.00957031,
4968,-0.00793457,0.00962524,
4970,-0.012207,0.00969849,
4972,0.0268555,0.00985718,
4974,-0.012207,0.0098938,
4976,-0.00244141,0.00970459,
4978,0.00366211,0.00968018,
4980,0.00427246,0.00964966,
4982,0.0280762,0.00983887,
4984,-0.00976563,0.00980225,
4986,-0.0256348,0.00997925,
4988,0.0195313,0.0100037,
4990,0.00183105,0.0098877,
4992,-0.000610352,0.00983276,
4994,0.00976563,0.00975342,
4996,-0.00366211,0.00975952,
4998,-0.022583,0.00990601,
5000,-0.00183105,0.0098938,
5002,-0.00671387,0.00993652,
5004,0.00610352,0.00993652,
5006,-0.0134277,0.0100037,
5008,-0.000610352,0.00999146,
5010,-0.0177002,0.0100403,
5012,-0.0012207,0.00996704,
5014,-0.0183105,0.0100342,
5016,0.00610352,0.0098938,
5018,0.0402832,0.0102722,
5020,-0.00244141,0.0102966,
5022,-0.0134277,0.0102722,
5024,-0.00732422,0.0102356,
5026,0.00183105,0.010199,
5028,-0.00976563,0.0102783,
5030,-0.0189209,0.0102417,
5032,-0.00183105,0.0101318,
5034,-0.0231934,0.0102356,
5036,-0.0152588,0.0102966,
5038,0.0140381,0.0104187,
5040,0.0158691,0.0104065,
5042,0.0012207,0.0103943,
5044,-0.0115967,0.0103821,
5046,0.0189209,0.0105286,
5048,-0.00671387,0.010437,
5050,-0.0170898,0.010553,
5052,-0.010376,0.0106262,
5054,0.00366211,0.0106445,
5056,-0.0268555,0.0108276,
5058,-0.0177002,0.0109009,
5060,-0.00549316,0.0107544,
5062,0.0183105,0.0106018,
5064,-0.00671387,0.0106018,
5066,0.00915527,0.0106323,
5068,-0.0201416,0.0106201,
5070,0,0.0106079,
5072,0.0115967,0.0105896,
5074,-0.00610352,0.0105896,
5076,-0.0164795,0.0106812,
5078,-0.0177002,0.0107422,
5080,-0.0012207,0.0105835,
5082,0.00793457,0.0105652,
5084,-0.0231934,0.0107605,
5086,0.00366211,0.0107361,
5088,-0.000610352,0.0106018,
5090,-0.00854492,0.0106567,
5092,0.00183105,0.0106018,
5094,-0.00183105,0.0105286,
5096,0.00244141,0.0103638,
5098,0.012207,0.0102356,
5100,0.00671387,0.0102417,
5102,-0.0146484,0.0102905,
5104,0.00366211,0.0102173,
5106,-0.0012207,0.0101318,
5108,0.0012207,0.0101013,
5110,-0.00854492,0.0100159,
5112,-0.00366211,0.00988159,
5114,-0.0231934,0.00999146,
5116,0.00183105,0.00999756,
5118,-0.00427246,0.00986938,
5120,-0.010376,0.00994263,
5122,0.00610352,0.00986328,
5124,0.0128174,0.00996704,
5126,-0.0231934,0.0101257,
5128,0.0128174,0.0101624,
5130,0.00610352,0.00991821,
5132,-0.00610352,0.00997314,
5134,-0.0238037,0.0101929,
5136,0.00610352,0.00997925,
5138,-0.0012207,0.00985107,
5140,-0.00793457,0.00985718,
5142,0,0.00982666,
5144,-0.010376,0.00985718,
5146,0.00427246,0.00985718,
5148,0.00976563,0.00979004,
5150,-0.00244141,0.009729,
5152,0.00671387,0.00973511,
5154,0.00427246,0.00974121,
5156,-0.00427246,0.00974121,
5158,0.00610352,0.00970459,
5160,0.0109863,0.00977783,
5162,-0.00610352,0.00980225,
5164,-0.00915527,0.00985718,
5166,0.0012207,0.00977783,
5168,-0.0012207,0.00971069,
5170,-0.0183105,0.00977173,
5172,0.012207,0.00962524,
5174,-0.00671387,0.00957031,
5176,-0.0268555,0.00981445,
5178,-0.000610352,0.00978394,
5180,-0.0170898,0.00991211,
5182,0.00549316,0.00968628,
5184,-0.0152588,0.00974121,
5186,-0.00488281,0.00953369,
5188,0.0012207,0.00935059,
5190,-0.0366211,0.00969849,
5192,0.00549316,0.00974731,
5194,-0.000610352,0.00965576,
5196,0.00549316,0.00967407,
5198,-0.00366211,0.00948486,
5200,-0.00671387,0.00953369,
5202,0.00183105,0.00948486,
5204,0.00854492,0.00950928,
5206,0.010376,0.00947876,
5208,0.00854492,0.00955811,
5210,-0.0152588,0.00953369,
5212,0.00915527,0.00961304,
5214,0.000610352,0.00943604,
5216,0.00915527,0.00946655,
5218,0.0109863,0.00917358,
5220,0.00305176,0.00917969,
5222,-0.00732422,0.00911865,
5224,-0.000610352,0.00905151,
5226,0.00366211,0.00906982,
5228,-0.00976563,0.00906982,
5230,-0.00671387,0.00894775,
5232,-0.0177002,0.00910645,
5234,-0.00427246,0.00891724,
5236,-0.00183105,0.00878296,
5238,0.00732422,0.00871582,
5240,-0.010376,0.00866089,
5242,-0.00915527,0.00874023,
5244,0.00671387,0.00869141,
5246,-0.00427246,0.00854492,
5248,0.00244141,0.0085022,
5250,-0.00427246,0.00837402,
5252,-0.0109863,0.00838013,
5254,-0.0262451,0.00860596,
5256,-0.0140381,0.00847778,
5258,0.0177002,0.00847778,
5260,-0.00366211,0.00845947,
5262,-0.0115967,0.00839233,
5264,-0.00793457,0.00840454,
5266,0.000610352,0.00831909,
5268,0.000610352,0.00812378,
5270,-0.0152588,0.00827637,
5272,0.00244141,0.00818481,
5274,-0.0134277,0.00825806,
5276,-0.0115967,0.00820923,
5278,-0.00610352,0.00809326,
5280,-0.0109863,0.00819092,
5282,0.00854492,0.00819702,
5284,-0.0134277,0.00809937,
5286,-0.00488281,0.00811157,
5288,0.012207,0.00822754,
5290,-0.00732422,0.00821533,
5292,0.00366211,0.00823364,
5294,-0.00183105,0.00823364,
5296,0.00976563,0.00830688,
5298,0.00427246,0.00822754,
5300,-0.00976563,0.00825806,
5302,0.0177002,0.00828857,
5304,0.00732422,0.0083252,
5306,-0.0219727,0.00853271,
5308,-0.00671387,0.00858765,
5310,0.00915527,0.00859375,
5312,0.010376,0.00866089,
5314,-0.0317383,0.00874634,
5316,0.022583,0.00895386,
5318,-0.0128174,0.00903931,
5320,-0.012207,0.00905762,
5322,-0.00854492,0.00908203,
5324,0.00732422,0.0090271,
5326,-0.0115967,0.00891113,
5328,-0.0183105,0.00896606,
5330,-0.00976563,0.00900269,
5332,0.000610352,0.00894775,
5334,-0.00244141,0.00873413,
5336,-0.00183105,0.00869141,
5338,-0.0115967,0.00879517,
5340,-0.0012207,0.00872803,
5342,0.000610352,0.00873413,
5344,0.00305176,0.00866089,
5346,0.00427246,0.00866089,
5348,-0.0140381,0.00870361,
5350,-0.010376,0.00878296,
5352,-0.0146484,0.0088623,
5354,-0.00793457,0.00889893,
5356,0.00793457,0.00893555,
5358,-0.00671387,0.00894165,
5360,-0.0128174,0.00895996,
5362,0.00610352,0.00895996,
5364,-0.00732422,0.00894165,
5366,-0.00671387,0.00899658,
5368,0.0115967,0.00910034,
5370,-0.00427246,0.00895996,
5372,0.00671387,0.00890503,
5374,0,0.00883789,
5376,-0.0134277,0.00870361,
5378,-0.00732422,0.00877075,
5380,-0.010376,0.00870361,
5382,-0.00854492,0.00873413,
5384,-0.00488281,0.00863037,
5386,-0.010376,0.0086853,
5388,-0.00793457,0.00875244,
5390,-0.00244141,0.00841064,
5392,0.0128174,0.00848389,
5394,0.00793457,0.00855713,
5396,-0.00854492,0.00858765,
5398,-0.00793457,0.00863037,
5400,-0.00610352,0.00862427,
5402,0.0109863,0.00871582,
5404,-0.0170898,0.00880127,
5406,-0.0152588,0.0088501,
5408,-0.00793457,0.00884399,
5410,-0.0012207,0.00870361,
5412,-0.00549316,0.00866699,
5414,0.00549316,0.00871582,
5416,0.0152588,0.00877686,
5418,-0.00793457,0.00874634,
5420,0.00549316,0.00877075,
5422,0.0183105,0.00888062,
5424,-0.0189209,0.00906372,
5426,0.00671387,0.00909424,
5428,0.0158691,0.00915527,
5430,0.0115967,0.0092041,
5432,-0.0109863,0.00913696,
5434,-0.00854492,0.00917969,
5436,-0.000610352,0.00916748,
5438,-0.00488281,0.00914307,
5440,-0.00793457,0.00911865,
5442,-0.00610352,0.00908813,
5444,-0.0213623,0.00923462,
5446,-0.00366211,0.00922852,
5448,-0.00793457,0.00928345,
5450,-0.0146484,0.00938721,
5452,0.00244141,0.00930176,
5454,-0.0012207,0.00905151,
5456,-0.00793457,0.00899048,
5458,-0.00549316,0.00886841,
5460,0.0115967,0.00894775,
5462,0.00976563,0.00892944,
5464,-0.020752,0.00905762,
5466,-0.0012207,0.00906372,
5468,0.0115967,0.00917358,
5470,0.00549316,0.00907593,
5472,-0.00488281,0.00910034,
5474,-0.012207,0.00908813,
5476,-0.00915527,0.00906372,
5478,0.000610352,0.00900879,
5480,-0.00976563,0.00899658,
5482,0.00610352,0.00897217,
5484,-0.0152588,0.00899048,
5486,0.0305176,0.00924683,
5488,-0.0158691,0.00928345,
5490,0.00427246,0.00925293,
5492,0.010376,0.00932007,
5494,-0.00915527,0.00939331,
5496,-0.00305176,0.00932617,
5498,0.000610352,0.00928955,
5500,-0.0177002,0.0093689,
5502,0.00244141,0.00921631,
5504,-0.00305176,0.00917358,
5506,0.0231934,0.00918579,
5508,-0.0201416,0.00932007,
5510,-0.0146484,0.009375,
5512,0.00549316,0.00932617,
5514,0.00488281,0.00905762,
5516,0.000610352,0.00883789,
5518,-0.0390625,0.00910034,
5520,0.0109863,0.00908813,
5522,-0.012207,0.00912476,
5524,-0.00671387,0.00911865,
5526,-0.00915527,0.00909424,
5528,-0.00488281,0.00895996,
5530,0.00549316,0.00891724,
5532,0.0213623,0.00912476,
5534,-0.0390625,0.00949097,
5536,0.00244141,0.00949707,
5538,0.0189209,0.00957031,
5540,-0.00976563,0.00965576,
5542,0.00427246,0.00969238,
5544,-0.0128174,0.00979004,
5546,0.00854492,0.00983276,
5548,0.00671387,0.00975952,
5550,-0.0219727,0.00987549,
5552,0.000610352,0.00973511,
5554,-0.00427246,0.00969849,
5556,-0.00915527,0.00971069,
5558,-0.00732422,0.0097168,
5560,-0.00488281,0.00963745,
5562,0.00671387,0.00964355,
5564,-0.010376,0.00967407,
5566,-0.00427246,0.00964966,
5568,-0.00549316,0.00958862,
5570,-0.0115967,0.00966187,
5572,0.00671387,0.00966187,
5574,0.00610352,0.0097229,
5576,-0.0134277,0.0097229,
5578,-0.00366211,0.00968628,
5580,-0.0115967,0.00969849,
5582,-0.0012207,0.00962524,
5584,-0.00732422,0.00964966,
5586,-0.00671387,0.00961304,
5588,-0.000610352,0.00953979,
5590,-0.0012207,0.00952759,
5592,0.0177002,0.00957642,
5594,-0.022583,0.0097229,
5596,0.00244141,0.00966187,
5598,0.0140381,0.0097229,
5600,0.00305176,0.00969238,
5602,-0.0012207,0.00959473,
5604,0,0.00942383,
5606,-0.00976563,0.0093689,
5608,-0.00549316,0.00934448,
5610,0.0170898,0.00950317,
5612,0.00610352,0.00950928,
5614,-0.000610352,0.00946045,
5616,-0.0195313,0.00950317,
5618,0.0012207,0.00943604,
5620,0.0012207,0.00939331,
5622,-0.0109863,0.00932007,
5624,-0.0213623,0.00934448,
5626,-0.0134277,0.00941162,
5628,-0.0109863,0.00936279,
5630,-0.022583,0.00947266,
5632,-0.00915527,0.00945435,
5634,0.00854492,0.00945435,
5636,-0.000610352,0.00945435,
5638,0.0012207,0.00941772,
5640,-0.0140381,0.00947876,
5642,-0.00610352,0.00947876,
5644,-0.00305176,0.00929565,
5646,-0.000610352,0.00926514,
5648,0,0.00918579,
5650,-0.0164795,0.0092041,
5652,0.00671387,0.00924683,
5654,-0.0189209,0.00942383,
5656,-0.00305176,0.009375,
5658,0.00854492,0.00940552,
5660,0.0158691,0.00944824,
5662,0.00305176,0.0093811,
5664,-0.0158691,0.00933228,
5666,0.00305176,0.00935059,
5668,-0.00183105,0.00925293,
5670,-0.00305176,0.00922852,
5672,0.00732422,0.00925293,
5674,-0.0152588,0.00928345,
5676,-0.00671387,0.00925903,
5678,-0.00976563,0.00935059,
5680,-0.00854492,0.00933838,
5682,-0.00183105,0.00929565,
5684,-0.00305176,0.00917358,
5686,0.00183105,0.00888672,
5688,0,0.00872803,
5690,-0.00549316,0.00874023,
5692,0.00244141,0.00866089,
5694,0.0238037,0.00880737,
5696,-0.00976563,0.00887451,
5698,0.00305176,0.00889893,
5700,0.000610352,0.00872803,
5702,-0.010376,0.00880737,
5704,-0.00976563,0.00887451,
5706,0.0201416,0.00884399,
5708,-0.0231934,0.00887451,
5710,-0.0244141,0.00897217,
5712,0.00427246,0.00895996,
5714,-0.0164795,0.00907593,
5716,0.00549316,0.00912476,
5718,0.000610352,0.00874023,
5720,0.0012207,0.00864258,
5722,0.00244141,0.00854492,
5724,0.00305176,0.0085083,
5726,0.00427246,0.00845947,
5728,0.0140381,0.00855103,
5730,0.0012207,0.0085083,
5732,-0.0170898,0.00846558,
5734,0.00610352,0.00813599,
5736,-0.00488281,0.0081604,
5738,-0.0109863,0.00808105,
5740,-0.0250244,0.00823364,
5742,0.00427246,0.00823364,
5744,-0.00854492,0.00819092,
5746,-0.0140381,0.00824585,
5748,0.00488281,0.00822754,
5750,0.00793457,0.00808716,
5752,-0.0134277,0.00821533,
5754,0.00671387,0.00823975,
5756,0.00976563,0.00824585,
5758,-0.0012207,0.00818481,
5760,0.00793457,0.00821533,
5762,0.000610352,0.0081543,
5764,0.00549316,0.00810547,
5766,-0.00610352,0.00812378,
5768,0.00732422,0.00814209,
5770,-0.0195313,0.00822144,
5772,0.00671387,0.00822144,
5774,-0.0146484,0.00830688,
5776,-0.00793457,0.00825195,
5778,-0.00732422,0.00828857,
5780,-0.0170898,0.00834351,
5782,-0.0012207,0.00834351,
5784,-0.022583,0.00849609,
5786,-0.00732422,0.0085022,
5788,-0.00549316,0.00855103,
5790,-0.00793457,0.00861816,
5792,-0.0128174,0.00856934,
5794,0.0109863,0.00845337,
5796,0.00976563,0.00852661,
5798,-0.00183105,0.00840454,
5800,-0.012207,0.00849609,
5802,0.0115967,0.00859985,
5804,0,0.00859985,
5806,-0.0012207,0.0085144,
5808,-0.00366211,0.00849609,
5810,-0.00183105,0.00834351,
5812,-0.00915527,0.00837402,
5814,-0.00610352,0.00842896,
5816,0.00183105,0.00825195,
5818,0.00671387,0.00830688,
5820,-0.00732422,0.00836792,
5822,-0.00366211,0.00829468,
5824,-0.00793457,0.0081604,
5826,-0.00549316,0.00808105,
5828,0.000610352,0.00797729,
5830,-0.0262451,0.00801392,
5832,0.00244141,0.00794678,
5834,-0.00915527,0.00795288,
5836,-0.00854492,0.00803223,
5838,0.00549316,0.00807495,
5840,-0.00488281,0.0079834,
5842,-0.00305176,0.00795288,
5844,0.00732422,0.00799561,
5846,0.00183105,0.00800781,
5848,-0.00305176,0.00803833,
5850,0.000610352,0.00787964,
5852,-0.00183105,0.00783081,
5854,-0.00549316,0.00769653,
5856,-0.00366211,0.00770264,
5858,0.0115967,0.00773315,
5860,-0.012207,0.00769653,
5862,-0.000610352,0.00767212,
5864,-0.00732422,0.00758667,
5866,-0.00549316,0.00761108,
5868,-0.0164795,0.00775757,
5870,0.0256348,0.0079834,
5872,-0.00305176,0.00794067,
5874,-0.0134277,0.00792236,
5876,-0.00671387,0.00792236,
5878,0.0158691,0.0079834,
5880,0.00488281,0.00794678,
5882,0.012207,0.00805054,
5884,-0.012207,0.00814209,
5886,0.0134277,0.00825806,
5888,-0.00915527,0.00834961,
5890,-0.0140381,0.00843506,
5892,0.00732422,0.00848389,
5894,0.0219727,0.00846558,
5896,0.0012207,0.00838013,
5898,-0.0177002,0.00852661,
5900,0.0115967,0.00863647,
5902,0.00305176,0.00856323,
5904,-0.0170898,0.00863647,
5906,-0.00305176,0.00846558,
5908,-0.00793457,0.00831299,
5910,-0.010376,0.00817261,
5912,-0.00549316,0.00818481,
5914,-0.00610352,0.00808105,
5916,-0.0183105,0.00820923,
5918,-0.00427246,0.00824585,
5920,0.00854492,0.00831909,
5922,-0.000610352,0.00830078,
5924,-0.00976563,0.00836792,
5926,-0.0012207,0.0083374,
5928,-0.0115967,0.00831299,
5930,-0.00793457,0.00838013,
5932,-0.00793457,0.00828857,
5934,-0.00488281,0.00827637,
5936,0.00366211,0.00826416,
5938,0.00366211,0.00819092,
5940,-0.0115967,0.00805664,
5942,0.00610352,0.00807495,
5944,0.00366211,0.00802612,
5946,0.00183105,0.00790405,
5948,0.00305176,0.00788574,
5950,-0.012207,0.00792847,
5952,-0.00305176,0.00782471,
5954,0.00915527,0.00784912,
5956,-0.00793457,0.00783081,
5958,0.00854492,0.00790405,
5960,-0.00915527,0.00791626,
5962,0.00549316,0.00796509,
5964,0.0109863,0.00802002,
5966,0.000610352,0.00796509,
5968,0.0170898,0.00806274,
5970,0.00732422,0.00794067,
5972,-0.0012207,0.00788574,
5974,-0.0189209,0.00792847,
5976,-0.0152588,0.00800171,
5978,0.00610352,0.0079895,
5980,0.0012207,0.00783081,
5982,-0.00549316,0.00787354,
5984,-0.0195313,0.00784302,
5986,0.00305176,0.00780029,
5988,0.0183105,0.00792847,
5990,0.00854492,0.00793457,
5992,-0.00427246,0.00784912,
5994,0.0109863,0.00784912,
5996,0.0128174,0.00787964,
5998,-0.0231934,0.00809326,
6000,-0.0286865,0.00825806,
6002,-0.00488281,0.00819092,
6004,-0.0177002,0.00836792,
6006,-0.0262451,0.00861816,
6008,-0.0256348,0.00883789,
6010,-0.0189209,0.00900879,
6012,-0.0128174,0.00904541,
6014,0.012207,0.00910645,
6016,0.022583,0.00931396,
6018,0.0177002,0.00942383,
6020,0.00366211,0.00938721,
6022,0.0012207,0.00936279,
6024,0.0244141,0.00952759,
6026,0.0128174,0.00960083,
6028,-0.00183105,0.00961304,
6030,-0.0244141,0.00959473,
6032,-0.00366211,0.00960693,
6034,-0.0164795,0.00968018,
6036,0.00305176,0.00962524,
6038,-0.0146484,0.0097168,
6040,0,0.00966797,
6042,0.00183105,0.00965576,
6044,-0.0109863,0.00969238,
6046,0.00488281,0.0097229,
6048,0.0201416,0.0098938,
6050,-0.00732422,0.00996094,
6052,-0.0286865,0.0102295,
6054,-0.00793457,0.0102539,
6056,0.0164795,0.0103821,
6058,-0.00305176,0.0102966,
6060,0.0140381,0.0103149,
6062,0.0476074,0.0107849,
6064,-0.0219727,0.0109314,
6066,0.0140381,0.0110168,
6068,0.00549316,0.010907,
6070,-0.0109863,0.0107605,
6072,0.00549316,0.0107849,
6074,-0.0292969,0.0109436,
6076,-0.0384521,0.011261,
6078,-0.0244141,0.0113464,
6080,-0.0268555,0.0115662,
6082,-0.0158691,0.0116028,
6084,-0.0164795,0.0116455,
6086,-0.00732422,0.0115845,
6088,0.00549316,0.0115479,
6090,0.0317383,0.0117249,
6092,0.00427246,0.0116943,
6094,-0.00610352,0.0115356,
6096,0.0152588,0.011676,
6098,0.00244141,0.0115234,
6100,-0.00671387,0.0114746,
6102,-0.0012207,0.0114563,
6104,-0.00427246,0.0113281,
6106,0.0146484,0.0114441,
6108,-0.000610352,0.0113708,
6110,-0.00366211,0.0113037,
6112,0.012207,0.0113708,
6114,0.0268555,0.0115784,
6116,0.0231934,0.0116272,
6118,0.0012207,0.0115967,
6120,0.000610352,0.0115173,
6122,0.00244141,0.0115356,
6124,-0.0219727,0.0116577,
6126,-0.0311279,0.0119568,
6128,-0.0177002,0.0120178,
6130,-0.012207,0.0120605,
6132,-0.00915527,0.0120728,
6134,0.00610352,0.012085,
6136,0.0158691,0.012207,
6138,-0.00366211,0.012207,
6140,-0.00427246,0.0121338,
6142,0.00366211,0.0121094,
6144,0.0177002,0.0122498,
6146,0.0128174,0.0123596,
6148,-0.012207,0.0124512,
6150,-0.00793457,0.0124084,
6152,-0.00793457,0.0124573,
6154,-0.0164795,0.0125305,
6156,0.0244141,0.0126953,
6158,0.00366211,0.0126465,
6160,0.0152588,0.0127075,
6162,-0.00549316,0.0127075,
6164,-0.0115967,0.0127136,
6166,0.00732422,0.0127808,
6168,-0.0158691,0.0127686,
6170,-0.00610352,0.0127563,
6172,-0.0244141,0.0129883,
6174,-0.0244141,0.0130432,
6176,-0.0158691,0.0130493,
6178,0.000610352,0.0129944,
6180,-0.00244141,0.0130066,
6182,0.0128174,0.0130798,
6184,-0.0140381,0.0130249,
6186,0.010376,0.0130981,
6188,0.0372314,0.0132874,
6190,0.00793457,0.0132813,
6192,-0.00732422,0.0133118,
6194,0.0238037,0.0134399,
6196,-0.012207,0.0134338,
6198,-0.0213623,0.0134155,
6200,0.0231934,0.0133606,
6202,0.00366211,0.0133484,
6204,-0.0592041,0.0137634,
6206,0.00427246,0.0135437,
6208,0.0335693,0.013623,
6210,0.0158691,0.0135925,
6212,-0.0195313,0.0136597,
6214,-0.0299072,0.0138367,
6216,-0.00366211,0.0136475,
6218,0.00305176,0.013501,
6220,-0.0189209,0.0136536,
6222,0.000610352,0.0136475,
6224,-0.0390625,0.0137939,
6226,-0.0183105,0.0138489,
6228,-0.00549316,0.0138855,
6230,0.00793457,0.0137207,
6232,0.0518799,0.0142029,
6234,-0.0115967,0.0141541,
6236,-0.012207,0.0142456,
6238,-0.00610352,0.0141602,
6240,0.012207,0.0142822,
6242,0.0152588,0.0144165,
6244,-0.020752,0.0145142,
6246,-0.0170898,0.0146362,
6248,-0.0164795,0.0145996,
6250,-0.0146484,0.0146729,
6252,-0.012207,0.0145081,
6254,0.000610352,0.0144348,
6256,0.00610352,0.0143311,
6258,0.000610352,0.0143066,
6260,-0.00183105,0.0141846,
6262,-0.0158691,0.0138672,
6264,0.0012207,0.0136597,
6266,0.0177002,0.0136963,
6268,-0.00854492,0.0137268,
6270,0.00915527,0.0137085,
6272,0.022583,0.0138794,
6274,0.00976563,0.0136841,
6276,-0.03479,0.0136475,
6278,0.0152588,0.0135559,
6280,0.00427246,0.0133301,
6282,0,0.0131714,
6284,-0.00610352,0.0130676,
6286,-0.00854492,0.0130798,
6288,-0.00549316,0.0130798,
6290,-0.020752,0.01297,
6292,0.0140381,0.0130676,
6294,0.0189209,0.0131958,
6296,0.0012207,0.0130554,
6298,-0.00671387,0.0130981,
6300,0.0152588,0.0131836,
6302,0.055542,0.0137268,
6304,0.0140381,0.0138245,
6306,-0.0390625,0.0140686,
6308,-0.0164795,0.0142273,
6310,0.00610352,0.0142517,
6312,-0.00366211,0.0141663,
6314,-0.0158691,0.0140564,
6316,-0.0170898,0.0139954,
6318,-0.0390625,0.0143738,
6320,-0.0146484,0.0145142,
6322,0.0115967,0.0146057,
6324,-0.000610352,0.0143921,
6326,0.00305176,0.0141113,
6328,-0.00610352,0.0139954,
6330,0,0.0138733,
6332,-0.0012207,0.0137939,
6334,-0.0140381,0.0138733,
6336,-0.010376,0.0138184,
6338,0.0231934,0.0140137,
6340,-0.0152588,0.0141235,
6342,-0.00671387,0.0141541,
6344,0.000610352,0.0139832,
6346,0.0109863,0.0139648,
6348,0.00244141,0.0138672,
6350,-0.00610352,0.0138489,
6352,0.0146484,0.013916,
6354,0.00976563,0.0138489,
6356,0.0201416,0.0138062,
6358,-0.0115967,0.0138855,
6360,-0.0244141,0.0139771,
6362,0.0384521,0.0143066,
6364,0.00976563,0.0142883,
6366,-0.0177002,0.0143921,
6368,-0.00366211,0.01427,
6370,-0.0158691,0.0143677,
6372,0.00549316,0.0141785,
6374,-0.00244141,0.0139587,
6376,-0.00671387,0.0138672,
6378,0.00793457,0.0139404,
6380,0.0012207,0.0139282,
6382,-0.012207,0.0139221,
6384,0.000610352,0.0137878,
6386,0.00488281,0.0137329,
6388,-0.00305176,0.0133911,
6390,-0.00732422,0.013385,
6392,-0.00549316,0.0133667,
6394,-0.00549316,0.0131836,
6396,0.0012207,0.0130737,
6398,0.00915527,0.0129517,
6400,-0.00854492,0.0128052,
6402,0.0012207,0.0127808,
6404,-0.0134277,0.012323,
6406,0.0115967,0.0123962,
6408,-0.00488281,0.0121094,
6410,-0.00610352,0.0120117,
6412,0,0.0118164,
6414,0.0170898,0.0116882,
6416,-0.0109863,0.0117615,
6418,-0.0201416,0.0119324,
6420,0.0238037,0.0119812,
6422,0.00244141,0.0119995,
6424,-0.0146484,0.0117554,
6426,-0.00793457,0.0116516,
6428,-0.00610352,0.0116577,
6430,-0.0201416,0.0117798,
6432,-0.010376,0.0113647,
6434,0.00549316,0.0113037,
6436,0.00183105,0.0112,
6438,0.00854492,0.0112244,
6440,-0.00793457,0.0111816,
6442,0.00183105,0.0110474,
6444,-0.00366211,0.0108765,
6446,0.0366211,0.0110718,
6448,0.0189209,0.0110962,
6450,-0.0177002,0.0111267,
6452,-0.0152588,0.0111572,
6454,0.00183105,0.0111694,
6456,-0.00427246,0.0111511,
6458,-0.0140381,0.0112854,
6460,-0.0152588,0.0114197,
6462,-0.0250244,0.0115112,
6464,-0.020752,0.0117065,
6466,-0.0219727,0.0117493,
6468,0.00366211,0.0117004,
6470,-0.00915527,0.0117004,
6472,0.00976563,0.0115723,
6474,-0.00854492,0.0115601,
6476,0.00244141,0.0112366,
6478,-0.00366211,0.0111206,
6480,-0.0115967,0.0111938,
6482,-0.00183105,0.0112122,
6484,-0.0146484,0.0112976,
6486,-0.012207,0.0113342,
6488,-0.0158691,0.011438,
6490,-0.0158691,0.0113892,
6492,0.000610352,0.0112549,
6494,0.00244141,0.0110901,
6496,-0.00549316,0.0111328,
6498,-0.0012207,0.0110779,
6500,0.000610352,0.0109314,
6502,-0.0128174,0.0105042,
6504,-0.00610352,0.0104248,
6506,0.00976563,0.0101318,
6508,-0.000610352,0.00997314,
6510,-0.010376,0.0100159,
6512,-0.00671387,0.0100464,
6514,0.00610352,0.00994873,
6516,0.00488281,0.00982666,
6518,0.00488281,0.00948486,
6520,0.0140381,0.00947876,
6522,0.010376,0.00946655,
6524,-0.0109863,0.00957031,
6526,0.0109863,0.00964966,
6528,0.0115967,0.00970459,
6530,-0.010376,0.00980835,
6532,0.0152588,0.00994873,
6534,-0.00244141,0.00983276,
6536,-0.0115967,0.00984497,
6538,0.0109863,0.0097229,
6540,-0.00610352,0.00963135,
6542,0.00793457,0.00964355,
6544,0.0140381,0.00977783,
6546,-0.0158691,0.00982666,
6548,-0.00244141,0.00982666,
6550,0.00549316,0.00982056,
6552,-0.0164795,0.00983887,
6554,-0.0115967,0.00985718,
6556,-0.00854492,0.00974121,
6558,-0.0183105,0.00980835,
6560,-0.00671387,0.00963135,
6562,-0.00732422,0.00932007,
6564,-0.0262451,0.00948486,
6566,0.00305176,0.00933838,
6568,0.00305176,0.00933228,
6570,-0.00244141,0.009198,
6572,-0.000610352,0.00914917,
6574,-0.00793457,0.0092041,
6576,0.0012207,0.00914917,
6578,-0.00671387,0.00913696,
6580,0.00488281,0.00917358,
6582,-0.00488281,0.00910034,
6584,-0.00610352,0.00915527,
6586,-0.0012207,0.00911865,
6588,-0.010376,0.00919189,
6590,-0.010376,0.00922241,
6592,0.00854492,0.00925293,
6594,-0.00183105,0.00921631,
6596,0.00793457,0.00928345,
6598,-0.0195313,0.00938721,
6600,0.0109863,0.00941162,
6602,0.00488281,0.00944824,
6604,-0.00183105,0.00933228,
6606,-0.0177002,0.00939331,
6608,0.00610352,0.00940552,
6610,0.00488281,0.00939331,
6612,-0.0109863,0.00950317,
6614,-0.0134277,0.00946655,
6616,0.00976563,0.00945435,
6618,0.00244141,0.00927734,
6620,-0.0140381,0.00917969,
6622,-0.00549316,0.00921021,
6624,0.0164795,0.00922852,
6626,0.00427246,0.00919189,
6628,0.012207,0.00925293,
6630,0.00366211,0.00908813,
6632,-0.00732422,0.00905762,
6634,0,0.00900269,
6636,0.0012207,0.00899658,
6638,0.00183105,0.00892944,
6640,-0.0115967,0.00896606,
6642,-0.010376,0.00905151,
6644,-0.0152588,0.00916748,
6646,-0.00976563,0.00889893,
6648,-0.00854492,0.00879517,
6650,-0.0146484,0.00876465,
6652,-0.0109863,0.00872192,
6654,0.00488281,0.00875244,
6656,0.00305176,0.00874023,
6658,-0.00854492,0.0086853,
6660,-0.00305176,0.00856323,
6662,0.00915527,0.00840454,
6664,0.000610352,0.00820313,
6666,-0.010376,0.00808716,
6668,-0.0201416,0.00825195,
6670,0.00976563,0.00825806,
6672,0.0323486,0.00848389,
6674,-0.0286865,0.0086853,
6676,-0.0354004,0.00901489,
6678,0.020752,0.00918579,
6680,0.020752,0.00927734,
6682,0.00183105,0.00927734,
6684,-0.0372314,0.00950317,
6686,0.00366211,0.00941772,
6688,0.0244141,0.00950317,
6690,-0.0152588,0.00949707,
6692,-0.00793457,0.00957031,
6694,-0.00305176,0.00957642,
6696,-0.00976563,0.00961914,
6698,0.0128174,0.00973511,
6700,-0.00854492,0.00981445,
6702,-0.00732422,0.00975952,
6704,0.00549316,0.00975342,
6706,-0.0213623,0.00986938,
6708,0.0012207,0.00987549,
6710,0,0.00977173,
6712,-0.0231934,0.00993652,
6714,-0.0152588,0.0100281,
6716,-0.000610352,0.00998535,
6718,-0.00366211,0.00997314,
6720,-0.0146484,0.00997925,
6722,0.00793457,0.00995483,
6724,0.00915527,0.00993652,
6726,-0.00305176,0.00985718,
6728,-0.00915527,0.00983276,
6730,0.00305176,0.00975952,
6732,-0.00244141,0.00963135,
6734,-0.00854492,0.00969238,
6736,-0.00732422,0.00964966,
6738,-0.012207,0.00966187,
6740,-0.010376,0.00970459,
6742,-0.00976563,0.0097229,
6744,-0.00915527,0.00967407,
6746,0.00244141,0.00953979,
6748,-0.00488281,0.00956421,
6750,-0.00488281,0.00955811,
6752,-0.00610352,0.00945435,
6754,-0.0012207,0.00935059,
6756,-0.010376,0.0093689,
6758,-0.00854492,0.00927124,
6760,0.00183105,0.00922241,
6762,-0.00549316,0.0092041,
6764,-0.000610352,0.00894775,
6766,0.0244141,0.00916138,
6768,-0.0164795,0.00929565,
6770,-0.00854492,0.00935669,
6772,0.0299072,0.00964966,
6774,0.0115967,0.00968628,
6776,-0.00671387,0.00974121,
6778,0,0.00967407,
6780,0.00976563,0.0097229,
6782,-0.010376,0.00977783,
6784,-0.0012207,0.009729,
6786,-0.0012207,0.009729,
6788,-0.00549316,0.00968018,
6790,-0.0140381,0.0097168,
6792,-0.0146484,0.00977783,
6794,0.00549316,0.00981445,
6796,-0.00915527,0.00982666,
6798,-0.0170898,0.00980225,
6800,0.00976563,0.00979004,
6802,0.0115967,0.00985718,
6804,-0.0268555,0.0101074,
6806,-0.00915527,0.010022,
6808,-0.00305176,0.00999146,
6810,-0.0146484,0.0100891,
6812,0.0012207,0.00999146,
6814,-0.0164795,0.010022,
6816,-0.00305176,0.00995483,
6818,0.00244141,0.00995483,
6820,0.000610352,0.00982056,
6822,-0.0109863,0.00987549,
6824,-0.0012207,0.0097229,
6826,0,0.00968018,
6828,-0.000610352,0.00956421,
6830,-0.0219727,0.00974731,
6832,-0.000610352,0.00968018,
6834,-0.0128174,0.00980835,
6836,-0.0115967,0.00991211,
6838,0.0012207,0.00990601,
6840,0.00305176,0.00982056,
6842,0.00549316,0.00977173,
6844,0.00183105,0.00963745,
6846,-0.000610352,0.0095459,
6848,0.000610352,0.00946655,
6850,0.00183105,0.00933838,
6852,0.0164795,0.00939331,
6854,-0.00244141,0.0093689,
6856,-0.00488281,0.00938721,
6858,-0.010376,0.00940552,
6860,0.000610352,0.0093811,
6862,0.010376,0.00939331,
6864,-0.0183105,0.00957031,
6866,-0.0109863,0.00957642,
6868,-0.010376,0.00947876,
6870,-0.0109863,0.00949097,
6872,0.00305176,0.009198,
6874,-0.020752,0.00911865,
6876,-0.0146484,0.00891113,
6878,-0.00488281,0.00875244,
6880,-0.00305176,0.00857544,
6882,0.010376,0.00866089,
6884,-0.00366211,0.0083252,
6886,-0.00732422,0.00836182,
6888,0.0012207,0.00812988,
6890,0.00305176,0.00800781,
6892,0.012207,0.00805054,
6894,-0.000610352,0.00802612,
6896,-0.00610352,0.0079895,
6898,0.00366211,0.00789795,
6900,-0.00671387,0.00787964,
6902,0.00610352,0.00786743,
6904,-0.0213623,0.00802612,
6906,0.000610352,0.0078186,
6908,-0.00549316,0.00786133,
6910,0.0012207,0.00787354,
6912,-0.0109863,0.00775146,
6914,-0.00854492,0.00768433,
6916,0.00549316,0.00773315,
6918,-0.00610352,0.00775757,
6920,-0.00305176,0.0076416,
6922,0.012207,0.00768433,
6924,-0.00183105,0.00761108,
6926,-0.00976563,0.00767822,
6928,-0.00610352,0.00764771,
6930,0.00305176,0.00764771,
6932,-0.00915527,0.00771484,
6934,-0.0183105,0.0078125,
6936,0.0012207,0.00775146,
6938,0.00305176,0.00765991,
6940,-0.00427246,0.00759888,
6942,0.00427246,0.00754395,
6944,-0.00366211,0.00748901,
6946,0.00976563,0.00756226,
6948,-0.00183105,0.00753174,
6950,0.0012207,0.00749512,
6952,-0.00305176,0.0074646,
6954,-0.00549316,0.00750732,
6956,-0.00488281,0.00745239,
6958,-0.00244141,0.00739136,
6960,0.0012207,0.00738525,
6962,-0.0177002,0.00750732,
6964,0.00244141,0.00752563,
6966,0.00854492,0.00736694,
6968,-0.00305176,0.00723267,
6970,0.00305176,0.00717773,
6972,0.000610352,0.00688477,
6974,-0.000610352,0.0067749,
6976,-0.012207,0.00682983,
6978,-0.00915527,0.00692139,
6980,0,0.00682373,
6982,-0.00183105,0.00673828,
6984,0.00244141,0.00675049,
6986,-0.00732422,0.00681152,
6988,0.0109863,0.00686646,
6990,-0.010376,0.00682983,
6992,0.00732422,0.00675659,
6994,0.00244141,0.00672607,
6996,0.00244141,0.00665894,
6998,-0.012207,0.00661011,
7000,-0.0238037,0.00675049,
7002,0.000610352,0.00664063,
7004,-0.0115967,0.00648804,
7006,-0.00976563,0.00649414,
7008,-0.00244141,0.00648804,
7010,-0.00854492,0.006427,
7012,0.0012207,0.006427,
7014,-0.00732422,0.00633545,
7016,0.0158691,0.00646362,
7018,-0.00366211,0.00647583,
7020,-0.00610352,0.00653076,
7022,0.00183105,0.00643921,
7024,-0.00427246,0.00646973,
7026,-0.00183105,0.00648804,
7028,-0.00732422,0.00655518,
7030,-0.00488281,0.00638428,
7032,0.00305176,0.00640869,
7034,-0.0012207,0.00629272,
7036,0.0012207,0.00618896,
7038,0.00244141,0.00620117,
7040,-0.0134277,0.00630493,
7042,-0.00427246,0.00629272,
7044,0.0390625,0.00666504,
7046,0.0274658,0.00693359,
7048,-0.0195313,0.0071228,
7050,-0.00854492,0.00718994,
7052,-0.00671387,0.00709229,
7054,0.00915527,0.00715942,
7056,0.00183105,0.00712891,
7058,-0.0189209,0.00721436,
7060,-0.0201416,0.00740967,
7062,-0.0115967,0.00742187,
7064,-0.0250244,0.00748901,
7066,-0.00610352,0.00744019,
7068,0.0012207,0.00734863,
7070,0.00305176,0.00726929,
7072,0.00305176,0.00726929,
7074,-0.0109863,0.00717163,
7076,-0.00671387,0.00709229,
7078,0.00183105,0.00706177,
7080,-0.00305176,0.00706177,
7082,0.00427246,0.00700073,
7084,-0.00549316,0.00701904,
7086,-0.012207,0.00706787,
7088,0.020752,0.00726318,
7090,-0.00915527,0.00732422,
7092,0.00671387,0.00726929,
7094,-0.00854492,0.00734863,
7096,0.0219727,0.00750732,
7098,0.0378418,0.00784912,
7100,0.00305176,0.0078125,
7102,-0.0134277,0.00788574,
7104,0.0134277,0.0078064,
7106,-0.00976563,0.00789795,
7108,-0.0109863,0.00795288,
7110,-0.010376,0.00804443,
7112,-0.0177002,0.00811157,
7114,-0.0189209,0.00821533,
7116,-0.00854492,0.00824585,
7118,-0.0250244,0.00843506,
7120,-0.00305176,0.00843506,
7122,0.0012207,0.0083252,
7124,-0.00244141,0.0083313,
7126,-0.00244141,0.00825806,
7128,-0.0109863,0.00830688,
7130,-0.012207,0.00839844,
7132,0,0.00830688,
7134,-0.00976563,0.00822144,
7136,-0.00610352,0.00827026,
7138,-0.00488281,0.00828857,
7140,-0.0109863,0.00835571,
7142,0.0140381,0.00845337,
7144,-0.00671387,0.00848389,
7146,-0.00549316,0.00844116,
7148,-0.00183105,0.00844116,
7150,0.00183105,0.00844727,
7152,0.00427246,0.00845947,
7154,-0.0195313,0.00859985,
7156,0.0201416,0.00875244,
7158,0.0189209,0.00891724,
7160,-0.0158691,0.00906372,
7162,0.00610352,0.00894775,
7164,0.0128174,0.00905151,
7166,-0.000610352,0.00897217,
7168,-0.00671387,0.00900879,
7170,-0.00244141,0.00900269,
7172,-0.00854492,0.00908203,
7174,-0.0158691,0.00923462,
7176,-0.0170898,0.00928345,
7178,-0.0140381,0.00933228,
7180,-0.0128174,0.00946045,
7182,0.00427246,0.00948486,
7184,-0.00854492,0.0095459,
7186,0.0128174,0.00960083,
7188,0.00183105,0.00950928,
7190,-0.0164795,0.00957031,
7192,0.0195313,0.00969238,
7194,-0.00793457,0.00974731,
7196,-0.00976563,0.00982056,
7198,-0.00488281,0.00974731,
7200,0.00976563,0.00960693,
7202,-0.0238037,0.00983887,
7204,-0.00793457,0.00980225,
7206,0.00244141,0.009729,
7208,0.0189209,0.0098938,
7210,-0.0189209,0.00999756,
7212,-0.010376,0.0100891,
7214,0.0109863,0.0101257,
7216,-0.00671387,0.0100342,
7218,-0.0115967,0.0101135,
7220,-0.00366211,0.0100891,
7222,-0.000610352,0.0100769,
7224,-0.010376,0.0101379,
7226,-0.00854492,0.0102051,
7228,-0.00549316,0.0101868,
7230,0.000610352,0.010144,
7232,0.00488281,0.0101624,
7234,-0.00854492,0.0102356,
7236,0.00366211,0.01026,
7238,-0.00244141,0.01026,
7240,-0.00549316,0.0101807,
7242,0.00854492,0.0102234,
7244,0.00366211,0.00986938,
7246,0.0244141,0.00983887,
7248,0.00366211,0.00968018,
7250,-0.0231934,0.00982666,
7252,0.00854492,0.00984497,
7254,0.00732422,0.00982666,
7256,0.000610352,0.00981445,
7258,-0.0195313,0.00982056,
7260,-0.0268555,0.0098877,
7262,-0.000610352,0.00977783,
7264,-0.0146484,0.00967407,
7266,-0.00976563,0.00971069,
7268,-0.00305176,0.009729,
7270,0.00183105,0.0097168,
7272,-0.00183105,0.00970459,
7274,-0.010376,0.00969849,
7276,0.00915527,0.0097229,
7278,0.00183105,0.0097229,
7280,-0.00183105,0.00971069,
7282,-0.000610352,0.00967407,
7284,-0.00610352,0.00968018,
7286,-0.00732422,0.00963135,
7288,0.00732422,0.00949707,
7290,0.00366211,0.00944214,
7292,0.000610352,0.0093811,
7294,-0.00183105,0.00931396,
7296,0.00488281,0.00914307,
7298,0.0012207,0.00877686,
7300,0.00366211,0.00878296,
7302,-0.0109863,0.00875854,
7304,-0.00793457,0.00870361,
7306,-0.0012207,0.00861816,
7308,-0.00793457,0.00858765,
7310,-0.00854492,0.00856934,
7312,0.00671387,0.00845947,
7314,-0.00915527,0.00836182,
7316,0.00305176,0.00830688,
7318,0.00366211,0.00809326,
7320,0.00183105,0.00808105,
7322,-0.00366211,0.00810547,
7324,0.00183105,0.00809937,
7326,-0.00427246,0.00811768,
7328,-0.0177002,0.00818481,
7330,-0.0140381,0.00820313,
7332,-0.00366211,0.00823975,
7334,-0.00366211,0.00817871,
7336,-0.00732422,0.00819092,
7338,-0.0115967,0.00825806,
7340,-0.0152588,0.00830078,
7342,0.00793457,0.00823975,
7344,0.00671387,0.00823975,
7346,-0.00976563,0.00828247,
7348,-0.00732422,0.0083374,
7350,0.00976563,0.00841675,
7352,0.00305176,0.00840454,
7354,-0.0146484,0.00835571,
7356,0.000610352,0.0081604,
7358,0.0183105,0.0081543,
7360,0.00183105,0.00801392,
7362,-0.0128174,0.00808105,
7364,-0.00915527,0.00804443,
7366,0.00366211,0.00807495,
7368,-0.0152588,0.0081604,
7370,-0.00427246,0.00817871,
7372,-0.00549316,0.00814819,
7374,-0.022583,0.00821533,
7376,-0.000610352,0.00805054,
7378,0.00305176,0.00794067,
7380,-0.0158691,0.00797119,
7382,0.000610352,0.00793457,
7384,0.00183105,0.00786743,
7386,-0.0109863,0.00784912,
7388,-0.00610352,0.00789185,
7390,-0.012207,0.00784912,
7392,0.0195313,0.00784912,
7394,0.0115967,0.00788574,
7396,-0.0323486,0.00811157,
7398,0.010376,0.0081665,
7400,0.000610352,0.00807495,
7402,-0.00183105,0.00785522,
7404,-0.00976563,0.00787354,
7406,-0.0109863,0.00795898,
7408,-0.0115967,0.00788574,
7410,-0.0115967,0.0078125,
7412,0.00549316,0.00776367,
7414,-0.00549316,0.00770874,
7416,-0.010376,0.00774536,
7418,-0.0158691,0.00778809,
7420,0.00793457,0.00783081,
7422,0.00854492,0.00791016,
7424,-0.0219727,0.00802612,
7426,-0.00549316,0.00799561,
7428,-0.00793457,0.00802002,
7430,-0.00366211,0.00805054,
7432,0.0012207,0.00801392,
7434,-0.00305176,0.00795898,
7436,0.00244141,0.00794678,
7438,-0.00854492,0.00800781,
7440,-0.00549316,0.00800781,
7442,0.00488281,0.00797119,
7444,-0.00793457,0.00801392,
7446,-0.00854492,0.00785522,
7448,-0.00854492,0.00790405,
7450,-0.010376,0.00777588,
7452,-0.00183105,0.00770874,
7454,-0.0109863,0.00774536,
7456,-0.00610352,0.00780029,
7458,-0.00610352,0.00766602,
7460,-0.000610352,0.00740356,
7462,0.000610352,0.00740356,
7464,-0.00549316,0.00731201,
7466,0.00305176,0.00724487,
7468,-0.00610352,0.00727539,
7470,0.00610352,0.00731812,
7472,0.0170898,0.0074707,
7474,0.00366211,0.00740356,
7476,0.0115967,0.00742798,
7478,-0.00488281,0.0074585,
7480,0.0140381,0.00758057,
7482,0.0177002,0.00775146,
7484,-0.0152588,0.00784302,
7486,-0.000610352,0.00777588,
7488,-0.0158691,0.00786133,
7490,0.00244141,0.00784912,
7492,-0.00610352,0.00790405,
7494,-0.0201416,0.00808716,
7496,-0.0128174,0.0081665,
7498,-0.0115967,0.00827026,
7500,-0.00366211,0.00827026,
7502,-0.00854492,0.00824585,
7504,-0.00915527,0.00825806,
7506,0,0.00824585,
7508,-0.00915527,0.00825806,
7510,-0.00793457,0.00825195,
7512,0.000610352,0.00819092,
7514,-0.0109863,0.00820923,
7516,-0.00305176,0.00820923,
7518,0.010376,0.00827637,
7520,-0.00732422,0.0083313,
7522,-0.00732422,0.00836792,
7524,0.000610352,0.00835571,
7526,-0.00854492,0.00839844,
7528,0.00427246,0.00826416,
7530,-0.00610352,0.00818481,
7532,0.0109863,0.00825806,
7534,-0.0115967,0.0083374,
7536,-0.0170898,0.00843506,
7538,0.00793457,0.00839844,
7540,0.00183105,0.00826416,
7542,-0.00793457,0.00826416,
7544,-0.0183105,0.00838013,
7546,-0.000610352,0.00828857,
7548,-0.00671387,0.00828247,
7550,-0.00976563,0.00828247,
7552,-0.0164795,0.00841675,
7554,-0.00793457,0.00834961,
7556,-0.0012207,0.00835571,
7558,-0.00366211,0.00820923,
7560,-0.00183105,0.00820923,
7562,0.00549316,0.00813599,
7564,0,0.00804443,
7566,0.00244141,0.00803223,
7568,-0.00305176,0.00791016,
7570,-0.00976563,0.00796509,
7572,-0.0012207,0.00792236,
7574,-0.000610352,0.00770264,
7576,-0.00244141,0.00772095,
7578,-0.0146484,0.00783691,
7580,-0.022583,0.00790405,
7582,-0.00427246,0.00794067,
7584,-0.00976563,0.00802002,
7586,0.00915527,0.00800171,
7588,0.00366211,0.00797729,
7590,-0.000610352,0.00786133,
7592,-0.00183105,0.00768433,
7594,-0.00793457,0.00764771,
7596,0.00366211,0.00736084,
7598,0.0158691,0.00741577,
7600,-0.0262451,0.00767212,
7602,-0.000610352,0.00765991,
7604,0.010376,0.00766602,
7606,-0.0152588,0.00770874,
7608,-0.0158691,0.00775146,
7610,0.00183105,0.00765381,
7612,0.0152588,0.00775146,
7614,-0.0109863,0.0078064,
7616,-0.00305176,0.00773315,
7618,0.00366211,0.00761108,
7620,0.00244141,0.00755615,
7622,-0.000610352,0.00747681,
7624,-0.00610352,0.00731812,
7626,0.00610352,0.00732422,
7628,-0.0109863,0.00735474,
7630,-0.00427246,0.00736084,
7632,-0.00305176,0.00737915,
7634,-0.00854492,0.00743408,
7636,-0.00305176,0.00744019,
7638,0.000610352,0.00736084,
7640,-0.00854492,0.00739136,
7642,-0.00305176,0.00737305,
7644,0.00488281,0.00734253,
7646,0.0134277,0.00739136,
7648,0.0128174,0.00743408,
7650,-0.00976563,0.00742798,
7652,0.00671387,0.00747681,
7654,0.00183105,0.00738525,
7656,0.0244141,0.00756836,
7658,-0.022583,0.00773315,
7660,0.00366211,0.00776367,
7662,-0.0140381,0.00789795,
7664,-0.0134277,0.00797729,
7666,0.010376,0.00805054,
7668,-0.00183105,0.00800781,
7670,-0.0140381,0.00808716,
7672,-0.00610352,0.00797729,
7674,-0.00915527,0.00803223,
7676,-0.000610352,0.00792236,
7678,0,0.00787354,
7680,0.00244141,0.00775757,
7682,-0.00183105,0.00759888,
7684,-0.0115967,0.00756226,
7686,0,0.00755615,
7688,0.0183105,0.00758057,
7690,0.00549316,0.00761108,
7692,-0.0195313,0.00774536,
7694,0.0128174,0.00767212,
7696,-0.0134277,0.00767822,
7698,-0.0012207,0.00757446,
7700,-0.0213623,0.00775146,
7702,-0.00732422,0.00773926,
7704,-0.0146484,0.00779419,
7706,-0.0189209,0.0079834,
7708,-0.0128174,0.00802002,
7710,-0.0140381,0.00808105,
7712,-0.000610352,0.00808105,
7714,-0.00183105,0.0079895,
7716,0.0012207,0.00797119,
7718,-0.0170898,0.00803833,
7720,0.00976563,0.00806274,
7722,0.00427246,0.00803223,
7724,-0.0164795,0.00819092,
7726,0.010376,0.00820923,
7728,-0.00915527,0.00825806,
7730,-0.00793457,0.00827637,
7732,0.000610352,0.00817261,
7734,-0.0134277,0.00819092,
7736,-0.00610352,0.00808105,
7738,0.0140381,0.00814209,
7740,0.00366211,0.0081604,
7742,0.00366211,0.00811768,
7744,-0.0012207,0.00794678,
7746,0.00793457,0.00802002,
7748,0,0.00795288,
7750,0.0146484,0.00800171,
7752,0.00793457,0.00791626,
7754,-0.0152588,0.0079895,
7756,-0.00366211,0.00801392,
7758,-0.00244141,0.00800171,
7760,-0.00671387,0.00805054,
7762,-0.0134277,0.00812988,
7764,-0.022583,0.00835571,
7766,0.00183105,0.00834961,
7768,-0.0164795,0.00848389,
7770,0,0.00838623,
7772,0.00549316,0.00842896,
7774,-0.00732422,0.00849609,
7776,-0.0170898,0.00864258,
7778,0.00488281,0.00854492,
7780,-0.00915527,0.00841064,
7782,0.00610352,0.00842896,
7784,-0.00549316,0.00838623,
7786,-0.0115967,0.00841064,
7788,-0.0158691,0.00853271,
7790,-0.00915527,0.00861816,
7792,-0.00305176,0.00863037,
7794,-0.00549316,0.00860596,
7796,-0.00732422,0.00864258,
7798,0.000610352,0.00848999,
7800,-0.00732422,0.00830078,
7802,0,0.00829468,
7804,-0.012207,0.00831299,
7806,-0.00183105,0.00817871,
7808,-0.00671387,0.00808716,
7810,0.00427246,0.00811157,
7812,-0.000610352,0.00796509,
7814,-0.0115967,0.00797119,
7816,-0.00366211,0.00797729,
7818,0.00549316,0.00799561,
7820,0.0158691,0.00812988,
7822,0.000610352,0.00812988,
7824,-0.0286865,0.00835571,
7826,0.0158691,0.00845337,
7828,0.00854492,0.00842896,
7830,-0.010376,0.00848999,
7832,-0.00244141,0.00848389,
7834,-0.0134277,0.00853271,
7836,0.00610352,0.00856323,
7838,0.0012207,0.00856934,
7840,-0.00305176,0.0085144,
7842,-0.00488281,0.00853271,
7844,-0.00427246,0.00852661,
7846,-0.00488281,0.00844116,
7848,-0.0128174,0.00844116,
7850,-0.00732422,0.00841675,
7852,0.00915527,0.00844116,
7854,-0.0195313,0.00861816,
7856,0.00610352,0.00843506,
7858,-0.00488281,0.00825806,
7860,-0.00854492,0.00830688,
7862,-0.012207,0.00828857,
7864,0.00854492,0.00823975,
7866,-0.0012207,0.00814819,
7868,-0.00671387,0.00819702,
7870,-0.0115967,0.00817261,
7872,-0.00244141,0.00813599,
7874,-0.0152588,0.00819702,
7876,0.00549316,0.00824585,
7878,0.00549316,0.00830078,
7880,-0.0140381,0.00841675,
7882,0,0.00839844,
7884,0.0012207,0.00829468,
7886,0.00244141,0.00831909,
7888,0.0012207,0.00814819,
7890,-0.0201416,0.00829468,
7892,0.00488281,0.00814819,
7894,0.0219727,0.00823975,
7896,-0.00183105,0.00812378,
7898,-0.00976563,0.00820923,
7900,-0.0152588,0.00814819,
7902,0.00366211,0.00811157,
7904,-0.0115967,0.00808105,
7906,-0.010376,0.00799561,
7908,-0.0170898,0.00803833,
7910,-0.0115967,0.00801392,
7912,0.0134277,0.00814209,
7914,-0.0164795,0.00828857,
7916,0.00183105,0.00829468,
7918,0.00610352,0.00818481,
7920,0.00488281,0.00813599,
7922,0.0115967,0.00820923,
7924,-0.00244141,0.00806885,
7926,-0.00305176,0.00799561,
7928,-0.00244141,0.00792847,
7930,-0.00244141,0.00787354,
7932,-0.0109863,0.00797729,
7934,-0.0177002,0.00802002,
7936,0.00244141,0.0079834,
7938,-0.00610352,0.00790405,
7940,0.00427246,0.00791016,
7942,-0.00976563,0.00797119,
7944,-0.00305176,0.0079895,
7946,0.00549316,0.00796509,
7948,-0.0012207,0.00797729,
7950,0.00732422,0.00790405,
7952,0.0146484,0.00797119,
7954,-0.00854492,0.00790405,
7956,-0.022583,0.00809326,
7958,-0.00305176,0.00809937,
7960,0.00671387,0.00809937,
7962,0.0012207,0.00797729,
7964,-0.022583,0.00797729,
7966,-0.0158691,0.00811768,
7968,-0.00671387,0.00802002,
7970,0.00183105,0.00803833,
7972,-0.0012207,0.00799561,
7974,-0.0128174,0.00805054,
7976,-0.00976563,0.00797729,
7978,0.0012207,0.00794067,
7980,0.00244141,0.00787354,
7982,0.00183105,0.00783081,
7984,-0.00610352,0.00783691,
7986,-0.00488281,0.00776978,
7988,0.0115967,0.00772705,
7990,0.0012207,0.00764771,
7992,-0.00305176,0.00764771,
7994,0.00305176,0.00762329,
7996,0.00976563,0.00764771,
7998,-0.00244141,0.00766602,
8000,0.000610352,0.00759888,
8002,0.000610352,0.00760498,
8004,-0.0128174,0.00761108,
8006,-0.012207,0.00771484,
8008,0.0115967,0.00776367,
8010,-0.00549316,0.00777588,
8012,-0.0164795,0.00793457,
8014,-0.0134277,0.00795288,
8016,0.0201416,0.00811768,
8018,-0.0134277,0.00819702,
8020,-0.00854492,0.00812378,
8022,0.00183105,0.00813599,
8024,-0.00427246,0.00789185,
8026,-0.00488281,0.00778198,
8028,-0.0152588,0.00784912,
8030,0.00732422,0.0078186,
8032,-0.00854492,0.00787964,
8034,-0.0177002,0.00792236,
8036,0.00183105,0.00787964,
8038,0.00244141,0.00789185,
8040,-0.0109863,0.00797119,
8042,0.00427246,0.00796509,
8044,0.00305176,0.00795288,
8046,0.00915527,0.00799561,
8048,-0.0115967,0.0079834,
8050,0.00732422,0.0079834,
8052,0.00305176,0.00792236,
8054,-0.00427246,0.00776978,
8056,0.00244141,0.00773315,
8058,-0.00488281,0.00773315,
8060,-0.0164795,0.0078125,
8062,-0.00244141,0.00771484,
8064,0.0115967,0.00774536,
8066,-0.00549316,0.00778809,
8068,-0.0189209,0.00791016,
8070,0.000610352,0.00780029,
8072,0.00244141,0.00780029,
8074,-0.00854492,0.00773315,
8076,-0.00793457,0.00775757,
8078,-0.0140381,0.00784302,
8080,-0.00488281,0.00775146,
8082,-0.00854492,0.00783691,
8084,-0.00854492,0.00791016,
8086,-0.00732422,0.00795898,
8088,0.0012207,0.00795898,
8090,-0.00671387,0.00782471,
8092,-0.00427246,0.0078186,
8094,-0.00854492,0.00768433,
8096,0.00244141,0.00769043,
8098,0.00976563,0.00769043,
8100,-0.0146484,0.00768433,
8102,0.00183105,0.00766602,
8104,-0.00244141,0.00757446,
8106,-0.00305176,0.00750122,
8108,-0.000610352,0.00733643,
8110,0.00610352,0.00728149,
8112,0.0238037,0.00738525,
8114,-0.0213623,0.00743408,
8116,-0.00854492,0.00750122,
8118,-0.00244141,0.0074646,
8120,0.00549316,0.0074707,
8122,0.0012207,0.00736694,
8124,-0.012207,0.0074646,
8126,-0.0158691,0.00759277,
8128,0,0.00756836,
8130,-0.0128174,0.00767212,
8132,0.00244141,0.00758667,
8134,-0.00671387,0.00747681,
8136,-0.00244141,0.00747681,
8138,-0.0012207,0.00742798,
8140,-0.00793457,0.0074646,
8142,-0.00854492,0.00745239,
8144,-0.00244141,0.00744629,
8146,0.0158691,0.00755005,
8148,-0.00427246,0.00758057,
8150,-0.00671387,0.00757446,
8152,-0.0012207,0.00744019,
8154,-0.00305176,0.00738525,
8156,0.000610352,0.00716553,
8158,-0.00427246,0.00717773,
8160,-0.00549316,0.00716553,
8162,-0.0146484,0.0072998,
8164,-0.0262451,0.00733643,
8166,0.00732422,0.00725098,
8168,0.00976563,0.00728149,
8170,-0.0109863,0.00737305,
8172,0.00915527,0.00745239,
8174,0.00427246,0.00736694,
8176,-0.00610352,0.00733032,
8178,0.0012207,0.00733032,
8180,0.00488281,0.00735474,
8182,0.0115967,0.00745239,
8184,-0.0128174,0.00751953,
8186,-0.00732422,0.00754395,
8188,-0.00549316,0.00748291,
8190,-0.0177002,0.00764771,
8192,0.0109863,0.00772705,
8194,0.00976563,0.00779419,
8196,-0.000610352,0.00770264,
8198,-0.00427246,0.00772095,
8200,-0.00244141,0.00773926,
8202,0.0146484,0.00787964,
8204,-0.0158691,0.00791016,
8206,-0.0012207,0.00780029,
8208,0.000610352,0.00769043,
8210,-0.0164795,0.00780029,
8212,-0.00793457,0.00771484,
8214,-0.0201416,0.00778198,
8216,-0.00732422,0.00765381,
8218,-0.012207,0.0076416,
8220,-0.00366211,0.00759277,
8222,-0.000610352,0.00758057,
8224,-0.00915527,0.00762939,
8226,-0.00549316,0.0076355,
8228,-0.0012207,0.00749512,
8230,-0.00305176,0.00745239,
8232,0.00183105,0.00738525,
8234,-0.0115967,0.00732422,
8236,-0.000610352,0.00731201,
8238,-0.00610352,0.00734863,
8240,0.0183105,0.00742187,
8242,-0.00244141,0.00740356,
8244,-0.00549316,0.00742798,
8246,0.0109863,0.00744629,
8248,-0.00366211,0.00736694,
8250,0.00183105,0.00731201,
8252,0.00549316,0.00733643,
8254,-0.0140381,0.00743408,
8256,-0.00671387,0.00747681,
8258,0.00305176,0.0074585,
8260,-0.000610352,0.0072998,
8262,-0.012207,0.00739746,
8264,-0.0115967,0.00739746,
8266,0.00732422,0.00741577,
8268,-0.00610352,0.0072876,
8270,-0.0109863,0.00739136,
8272,-0.00244141,0.00739136,
8274,-0.0109863,0.00741577,
8276,-0.012207,0.0074585,
8278,-0.00671387,0.00738525,
8280,-0.00671387,0.00740356,
8282,-0.00488281,0.00736694,
8284,-0.0183105,0.0074646,
8286,0.00183105,0.00740967,
8288,-0.00610352,0.0074585,
8290,-0.0012207,0.00740356,
8292,-0.00549316,0.00741577,
8294,0.00244141,0.00735474,
8296,0.0164795,0.00749512,
8298,-0.00671387,0.0074646,
8300,0.00427246,0.00736084,
8302,0.0219727,0.00756226,
8304,-0.00976563,0.0076355,
8306,-0.010376,0.00770874,
8308,-0.000610352,0.00770874,
8310,-0.00610352,0.00770874,
8312,-0.00488281,0.00751953,
8314,-0.00854492,0.00739136,
8316,-0.0152588,0.0074585,
8318,-0.00793457,0.00751343,
8320,0.00610352,0.00751953,
8322,-0.00793457,0.00758667,
8324,-0.00854492,0.00755005,
8326,-0.00244141,0.00741577,
8328,-0.00610352,0.00747681,
8330,-0.000610352,0.00735474,
8332,0.0164795,0.00749512,
8334,-0.00183105,0.00744629,
8336,-0.020752,0.00762939,
8338,-0.00793457,0.00769653,
8340,0.0128174,0.00774536,
8342,0.0158691,0.0078186,
8344,-0.020752,0.00800171,
