Dani_C_3-L01
Gráfico creado el:2026-06-03 17:05:58.273
Registro en:2026-06-03 17:10:14.819
2 mseg/muestras
2 canales
EMG
mV
EMG Integrado
mV-sec
milliSec,CH1,CH40,
,90246 samples,90246 samples,
0,-0.00244141,2.44141E-05,
2,-0.0250244,0.000274658,
4,0.00915527,0.000366211,
6,-0.0109863,0.000476074,
8,-0.00366211,0.000512695,
10,0.00671387,0.000579834,
12,0.0012207,0.000592041,
14,-0.0317383,0.000909424,
16,-0.00244141,0.000933838,
18,-0.00854492,0.00101929,
20,-0.00915527,0.00111084,
22,-0.0152588,0.00126343,
24,0.00183105,0.00128174,
26,0.020752,0.00148926,
28,-0.0128174,0.00161743,
30,-0.020752,0.00182495,
32,0.00915527,0.0019165,
34,0.00793457,0.00199585,
36,-0.00610352,0.00205688,
38,-0.0140381,0.00219727,
40,-0.0177002,0.00237427,
42,0.00488281,0.0024231,
44,-0.00366211,0.00245972,
46,0.00305176,0.00249023,
48,-0.020752,0.00269775,
50,0.00427246,0.00274048,
52,0.00549316,0.00279541,
54,0.00793457,0.00287476,
56,0.0152588,0.00302734,
58,-0.00671387,0.00309448,
60,-0.0219727,0.00331421,
62,-0.0140381,0.00345459,
64,0.00610352,0.00351562,
66,0.00183105,0.00353394,
68,-0.0109863,0.0036438,
70,-0.00732422,0.00371704,
72,-0.00305176,0.00374756,
74,-0.0244141,0.0039917,
76,-0.00549316,0.00404663,
78,0.00732422,0.00411987,
80,0.00732422,0.00419312,
82,0.000610352,0.00419922,
84,-0.0280762,0.00447998,
86,0.0012207,0.00449219,
88,0.0250244,0.00474243,
90,0.0268555,0.00501099,
92,-0.0402832,0.00541382,
94,-0.0189209,0.00560303,
96,0.0115967,0.00571899,
98,-0.00244141,0.00574341,
100,-0.0134277,0.00587769,
102,-0.0164795,0.00604248,
104,-0.0158691,0.00620117,
106,-0.0012207,0.00621338,
108,-0.0115967,0.00632935,
110,0.010376,0.00643311,
112,0.0195313,0.00662842,
114,-0.00366211,0.00666504,
116,-0.00488281,0.00671387,
118,0.00305176,0.00674438,
120,0.00244141,0.0067688,
122,-0.00976563,0.00686646,
124,-0.0128174,0.00699463,
126,-0.00427246,0.00703735,
128,-0.00610352,0.00709839,
130,0.00488281,0.00714722,
132,-0.00427246,0.00718994,
134,-0.0128174,0.00731812,
136,0.0250244,0.00756836,
138,0.00854492,0.00765381,
140,0.00976563,0.00775146,
142,-0.000610352,0.00775757,
144,0.00793457,0.00783691,
146,0.010376,0.00794067,
148,-0.0195313,0.00813599,
150,0.0177002,0.00831299,
152,-0.0115967,0.00842896,
154,-0.0408936,0.00883789,
156,-0.00366211,0.00887451,
158,-0.020752,0.00908203,
160,-0.0170898,0.00925293,
162,-0.0195313,0.00944824,
164,-0.0195313,0.00964355,
166,-0.010376,0.00974731,
168,-0.0128174,0.00987549,
170,-0.00305176,0.00990601,
172,-0.00793457,0.00998535,
174,-0.0012207,0.00999756,
176,-0.00732422,0.0100708,
178,0.00732422,0.010144,
180,0.00488281,0.0101929,
182,-0.000610352,0.010199,
184,-0.00305176,0.0102295,
186,-0.010376,0.0103333,
188,-0.0012207,0.0103455,
190,0.00793457,0.0104248,
192,0.010376,0.0105286,
194,-0.0146484,0.010675,
196,-0.0311279,0.0109863,
198,0.0183105,0.0111694,
200,0.0146484,0.0112915,
202,-0.00610352,0.0111023,
204,-0.0146484,0.0111572,
206,0.00854492,0.0111328,
208,-0.00183105,0.0111145,
210,-0.0183105,0.0112305,
212,-0.0164795,0.0113831,
214,0.00427246,0.0111084,
216,-0.00183105,0.0111023,
218,-0.0280762,0.0112976,
220,-0.0231934,0.011438,
222,0.00854492,0.0113708,
224,0.0128174,0.0114807,
226,-0.00976563,0.0113708,
228,-0.0201416,0.0114441,
230,0.0140381,0.011377,
232,0.00610352,0.0113464,
234,-0.0250244,0.0115173,
236,0,0.0114563,
238,-0.00488281,0.0113647,
240,-0.0012207,0.0112,
242,-0.0250244,0.0114014,
244,-0.0128174,0.0114929,
246,0.00244141,0.0114868,
248,0.00244141,0.0113037,
250,0.010376,0.0113647,
252,-0.0012207,0.011322,
254,-0.0183105,0.0114258,
256,0.00488281,0.011322,
258,0.00915527,0.0113464,
260,-0.00732422,0.0112,
262,-0.000610352,0.0110657,
264,-0.0158691,0.0111633,
266,-0.0140381,0.0112854,
268,-0.012207,0.0112976,
270,-0.00732422,0.0112976,
272,-0.00915527,0.0113586,
274,-0.00427246,0.0111572,
276,-0.00305176,0.0111328,
278,-0.00671387,0.0111267,
280,-0.00427246,0.0110962,
282,0.00183105,0.0111084,
284,0.00427246,0.0108704,
286,-0.00427246,0.0109009,
288,0.0286865,0.0109375,
290,-0.0115967,0.0107849,
292,-0.0177002,0.0105591,
294,-0.00305176,0.0104004,
296,-0.000610352,0.0102905,
298,0.00244141,0.0102905,
300,-0.00793457,0.0102356,
302,-0.0158691,0.0102295,
304,-0.012207,0.0101929,
306,0.00244141,0.0102051,
308,-0.00671387,0.0101563,
310,-0.000610352,0.0100586,
312,0.00488281,0.00991211,
314,0.020752,0.010083,
316,-0.00854492,0.0101196,
318,-0.0189209,0.0102783,
320,0.00610352,0.0103149,
322,0.0177002,0.0103943,
324,0.0195313,0.0104614,
326,0.00427246,0.0104614,
328,-0.0299072,0.0106995,
330,-0.0134277,0.0107849,
332,0.00854492,0.0108276,
334,-0.000610352,0.0107056,
336,-0.0177002,0.0106323,
338,-0.00976563,0.0106445,
340,-0.00915527,0.0106384,
342,-0.012207,0.0107544,
344,-0.00610352,0.0107361,
346,-0.0012207,0.0106445,
348,0.00732422,0.0105225,
350,0.00915527,0.010437,
352,-0.00671387,0.0103882,
354,0.00671387,0.0100464,
356,-0.0012207,0.010022,
358,-0.00793457,0.0098938,
360,-0.00549316,0.00977783,
362,0.00976563,0.00968018,
364,0.00976563,0.00958252,
366,0.0146484,0.00962524,
368,-0.0274658,0.00977173,
370,0.00671387,0.00980835,
372,0.00183105,0.00974731,
374,0.00183105,0.00975342,
376,0.00366211,0.0097168,
378,0.00183105,0.00966187,
380,-0.0201416,0.00981445,
382,-0.0115967,0.00992432,
384,0.0250244,0.010144,
386,0.00610352,0.0101013,
388,0.00366211,0.0101257,
390,-0.00732422,0.0101196,
392,-0.0158691,0.0101746,
394,0.00183105,0.0100464,
396,0.00244141,0.00975952,
398,-0.00793457,0.00965576,
400,-0.0262451,0.00977173,
402,-0.0189209,0.0098999,
404,-0.0134277,0.0098877,
406,-0.00183105,0.00982056,
408,-0.010376,0.00990601,
410,0.00610352,0.00978394,
412,-0.0177002,0.00979614,
414,-0.00366211,0.00979004,
416,-0.00549316,0.00982666,
418,-0.00976563,0.00964355,
420,-0.00549316,0.00946655,
422,0.00610352,0.00944214,
424,-0.000610352,0.00932007,
426,0.00732422,0.00929565,
428,-0.0238037,0.00933228,
430,0.00366211,0.00922852,
432,0.00976563,0.00926514,
434,0.000610352,0.009021,
436,-0.00305176,0.00905151,
438,0.010376,0.00910645,
440,0.010376,0.009198,
442,-0.00366211,0.00898438,
444,-0.032959,0.00918579,
446,0.00793457,0.00924072,
448,0.00366211,0.00925293,
450,-0.00671387,0.00921631,
452,-0.00976563,0.00930176,
454,-0.00244141,0.00914307,
456,-0.022583,0.00932007,
458,0.0262451,0.00949097,
460,0.00732422,0.00949097,
462,-0.0170898,0.00965576,
464,0.00244141,0.00952148,
466,0.0134277,0.00951538,
468,-0.0140381,0.00953369,
470,-0.0201416,0.00966187,
472,-0.0115967,0.00968628,
474,-0.0158691,0.00980225,
476,-0.000610352,0.00977783,
478,-0.012207,0.00983276,
480,0.00183105,0.00980835,
482,-0.00366211,0.00982666,
484,-0.010376,0.0098877,
486,0.00244141,0.00986938,
488,0.00854492,0.00966797,
490,0.00366211,0.00958862,
492,-0.00732422,0.00948486,
494,0.00793457,0.00953369,
496,-0.00427246,0.00957031,
498,-0.010376,0.00964966,
500,0.00915527,0.00966187,
502,0.00671387,0.00957031,
504,0.0146484,0.00959473,
506,0.0177002,0.00974731,
508,-0.0341797,0.010022,
510,-0.00732422,0.0100891,
512,0.0195313,0.0102356,
514,0.00915527,0.0101196,
516,-0.0183105,0.0102173,
518,-0.00549316,0.010083,
520,-0.0256348,0.0102783,
522,-0.00610352,0.0101624,
524,-0.010376,0.0100708,
526,-0.00854492,0.0101135,
528,-0.0152588,0.00996704,
530,-0.00671387,0.0098999,
532,-0.0128174,0.00994263,
534,-0.0164795,0.0101013,
536,-0.0109863,0.0100342,
538,-0.00610352,0.00999756,
540,-0.00305176,0.00993652,
542,-0.000610352,0.00982056,
544,-0.00488281,0.00980835,
546,-0.00854492,0.00988159,
548,-0.00305176,0.00983887,
550,-0.000610352,0.00975342,
552,-0.00366211,0.0097229,
554,-0.00427246,0.00969849,
556,-0.00549316,0.00974121,
558,-0.00305176,0.00969238,
560,0.0109863,0.00974731,
562,-0.00183105,0.00966797,
564,-0.0152588,0.0097229,
566,0.00793457,0.00965576,
568,0.00854492,0.00946655,
570,-0.00549316,0.00945435,
572,-0.012207,0.00955811,
574,-0.0012207,0.009552,
576,-0.00610352,0.00957642,
578,-0.0183105,0.00974121,
580,0,0.00953979,
582,-0.00244141,0.00944824,
584,-0.00366211,0.00923462,
586,0.00915527,0.00926514,
588,-0.022583,0.00945435,
590,0.0195313,0.00957642,
592,0.0445557,0.00986328,
594,-0.0201416,0.0100464,
596,-0.0244141,0.0102661,
598,-0.000610352,0.0101929,
600,0.012207,0.0100525,
602,-0.012207,0.00998535,
604,-0.0109863,0.00996094,
606,-0.0268555,0.0102112,
608,-0.00854492,0.0101929,
610,-0.00915527,0.0102234,
612,-0.0189209,0.0102356,
614,0.0158691,0.0103577,
616,0.00854492,0.0103882,
618,-0.0152588,0.0104431,
620,-0.0134277,0.0105225,
622,-0.00610352,0.0105225,
624,-0.00732422,0.0105896,
626,-0.00976563,0.010614,
628,-0.010376,0.0104797,
630,-0.0128174,0.0105713,
632,0.00549316,0.0105286,
634,-0.0274658,0.0107971,
636,-0.0134277,0.0109009,
638,0.0146484,0.0109436,
640,0.00671387,0.010907,
642,-0.00244141,0.0108948,
644,-0.0201416,0.0107666,
646,-0.00549316,0.0107422,
648,0.00366211,0.0107422,
650,0.000610352,0.0106812,
652,0.0115967,0.0106995,
654,0.00610352,0.0107361,
656,-0.0164795,0.010675,
658,-0.0201416,0.010614,
660,0.0158691,0.0106995,
662,0.00732422,0.0106018,
664,-0.0115967,0.0106934,
666,0.00549316,0.010614,
668,-0.0341797,0.0108154,
670,-0.00305176,0.0106445,
672,-0.00244141,0.010553,
674,-0.00732422,0.0104675,
676,-0.0012207,0.0104736,
678,-0.00732422,0.0104248,
680,0.00305176,0.010437,
682,0.00549316,0.0104553,
684,-0.00976563,0.0104492,
686,0.010376,0.0105286,
688,0.00305176,0.0104736,
690,-0.00793457,0.0105164,
692,0.00793457,0.0105225,
694,0.00488281,0.0104919,
696,0.0170898,0.0106201,
698,0.0238037,0.0107544,
700,-0.0189209,0.0108521,
702,-0.00793457,0.0108643,
704,0.0134277,0.0108521,
706,-0.00305176,0.0107056,
708,-0.0274658,0.0106384,
710,0.000610352,0.0105713,
712,-0.0244141,0.0106201,
714,-0.0238037,0.0107666,
716,-0.00183105,0.0106018,
718,-0.0317383,0.0108643,
720,0.00732422,0.0106812,
722,-0.00732422,0.0106934,
724,0.010376,0.0106934,
726,-0.0195313,0.0108032,
728,-0.0128174,0.0107788,
730,0.00366211,0.0107483,
732,-0.00976563,0.0107178,
734,-0.00976563,0.0106506,
736,-0.0134277,0.010675,
738,-0.00732422,0.0106873,
740,0.00366211,0.0106934,
742,0.00427246,0.01073,
744,-0.00854492,0.0107666,
746,-0.00244141,0.0107056,
748,-0.00305176,0.0107056,
750,-0.00793457,0.0107788,
752,0,0.0107422,
754,0.00366211,0.0107361,
756,-0.00671387,0.0107483,
758,-0.0170898,0.0108887,
760,-0.00793457,0.0108582,
762,-0.00244141,0.0108643,
764,0.0012207,0.0107239,
766,0,0.0106445,
768,-0.00854492,0.0106445,
770,-0.00976563,0.0106873,
772,-0.00732422,0.0106384,
774,0.0012207,0.0106384,
776,0.00183105,0.0105957,
778,-0.010376,0.0105164,
780,-0.00732422,0.0105896,
782,0.00183105,0.0105835,
784,0.0286865,0.0108337,
786,0.0231934,0.0109741,
788,0.00366211,0.0107849,
790,-0.0164795,0.0107544,
792,0.0134277,0.0104431,
794,0.00427246,0.0102844,
796,-0.00549316,0.0100952,
798,-0.0177002,0.0102661,
800,-0.0299072,0.0104431,
802,-0.0317383,0.0106384,
804,0.00427246,0.0105713,
806,0.0238037,0.0105408,
808,-0.0140381,0.0105957,
810,-0.0134277,0.0106384,
812,-0.0012207,0.0104614,
814,0.00732422,0.010376,
816,0.010376,0.0103943,
818,-0.0244141,0.0104858,
820,-0.0299072,0.0106506,
822,-0.010376,0.0106934,
824,-0.0219727,0.0108398,
826,-0.010376,0.0108459,
828,-0.012207,0.0108643,
830,0.00915527,0.0108276,
832,-0.000610352,0.0107788,
834,-0.0158691,0.0106628,
836,0.00366211,0.0105652,
838,0.0134277,0.010553,
840,0.010376,0.0105896,
842,0.0140381,0.0107056,
844,-0.00244141,0.0105286,
846,-0.0128174,0.0106018,
848,-0.0158691,0.0107239,
850,-0.0170898,0.0108887,
852,0.00305176,0.0108032,
854,-0.00183105,0.0107605,
856,-0.020752,0.0108032,
858,-0.0305176,0.010907,
860,-0.00976563,0.0108459,
862,-0.00976563,0.0108704,
864,-0.012207,0.0108765,
866,0.012207,0.0109436,
868,-0.00915527,0.0106934,
870,-0.0299072,0.0109619,
872,0.00244141,0.0109619,
874,-0.00366211,0.0109253,
876,-0.00915527,0.0110046,
878,-0.0152588,0.011084,
880,0,0.0110535,
882,0.00305176,0.0110291,
884,-0.00427246,0.0109741,
886,-0.00183105,0.0108887,
888,0.00366211,0.0108948,
890,-0.00366211,0.0108521,
892,-0.0140381,0.0109131,
894,-0.00427246,0.010907,
896,0.00366211,0.0107727,
898,-0.0012207,0.0105469,
900,-0.00671387,0.0104248,
902,-0.00488281,0.0103943,
904,-0.0170898,0.0104309,
906,0.00427246,0.0104431,
908,0.00244141,0.0101929,
910,0.00671387,0.0102539,
912,0.00549316,0.0100647,
914,0.0164795,0.00999146,
916,-0.00305176,0.0100037,
918,-0.0115967,0.00980225,
920,0.00610352,0.00979004,
922,-0.00854492,0.00980225,
924,-0.00366211,0.00973511,
926,-0.012207,0.00966187,
928,-0.0244141,0.00977783,
930,-0.0164795,0.00990601,
932,-0.00854492,0.0098938,
934,-0.0140381,0.00993652,
936,0.0219727,0.010022,
938,-0.00244141,0.00997314,
940,-0.0201416,0.0101379,
942,0.0158691,0.0102539,
944,-0.0201416,0.0103699,
946,-0.00366211,0.0103821,
948,-0.00183105,0.0103699,
950,0.00183105,0.0103088,
952,-0.0109863,0.0104187,
954,-0.00793457,0.0104614,
956,0.0140381,0.0105347,
958,0.00732422,0.010437,
960,-0.00305176,0.0103882,
962,0.00732422,0.010437,
964,0.00976563,0.0105225,
966,0.00854492,0.0106079,
968,-0.00549316,0.0105774,
970,-0.0152588,0.0106323,
972,-0.0189209,0.0107483,
974,-0.00854492,0.0108215,
976,-0.00732422,0.0108765,
978,-0.0335693,0.0111084,
980,-0.0195313,0.0112305,
982,-0.0140381,0.0113525,
984,-0.0164795,0.0112305,
986,-0.00671387,0.0110657,
988,0.00488281,0.0110779,
990,0.00305176,0.0109436,
992,-0.000610352,0.0108154,
994,-0.00183105,0.010791,
996,0.00366211,0.0107727,
998,-0.00793457,0.010675,
1000,-0.00427246,0.0104187,
1002,0.00183105,0.0101196,
1004,0.0170898,0.0102478,
1006,-0.0189209,0.010199,
1008,-0.00732422,0.0101318,
1010,0.0311279,0.0103088,
1012,0.00915527,0.0103882,
1014,-0.0341797,0.0106567,
1016,-0.000610352,0.0105591,
1018,0.000610352,0.010321,
1020,-0.00183105,0.0100403,
1022,-0.00427246,0.00997925,
1024,-0.0164795,0.00992432,
1026,0.00610352,0.00988159,
1028,0.0238037,0.00999756,
1030,0.0195313,0.0101013,
1032,-0.00793457,0.0101746,
1034,-0.00732422,0.0100891,
1036,0.0128174,0.0101807,
1038,0.0372314,0.0104187,
1040,0.0170898,0.0104858,
1042,-0.0653076,0.0109985,
1044,-0.0250244,0.0112244,
1046,0.0109863,0.0112061,
1048,-0.0115967,0.0111633,
1050,-0.0280762,0.0112732,
1052,-0.0280762,0.0115234,
1054,-0.012207,0.0116272,
1056,-0.0115967,0.0115356,
1058,-0.012207,0.0113525,
1060,-0.00366211,0.0112915,
1062,-0.00427246,0.0112366,
1064,0.000610352,0.0111206,
1066,0.0012207,0.0110107,
1068,-0.00305176,0.0109497,
1070,-0.00244141,0.010675,
1072,-0.00305176,0.0106812,
1074,-0.00427246,0.0106873,
1076,0.0012207,0.0106079,
1078,-0.00549316,0.0105103,
1080,0.000610352,0.0105164,
1082,-0.00427246,0.0105286,
1084,0.0012207,0.010498,
1086,0.0012207,0.0104919,
1088,0.00488281,0.0105042,
1090,0.00488281,0.0105164,
1092,0.010376,0.0104797,
1094,0.00305176,0.0104675,
1096,-0.00793457,0.0105103,
1098,-0.00366211,0.0105347,
1100,0.0012207,0.0104797,
1102,0.0140381,0.0105713,
1104,-0.00366211,0.010437,
1106,0.00366211,0.0104309,
1108,-0.0341797,0.0107483,
1110,0.00610352,0.0107422,
1112,-0.00671387,0.0107544,
1114,0.00671387,0.0106567,
1116,0.00976563,0.0107239,
1118,0.00427246,0.0106506,
1120,-0.00915527,0.0106812,
1122,0.0012207,0.0106079,
1124,0.0231934,0.0108032,
1126,-0.0115967,0.0107971,
1128,-0.00915527,0.0106445,
1130,0,0.0104797,
1132,-0.00793457,0.0104736,
1134,-0.0177002,0.0105103,
1136,-0.0250244,0.0105408,
1138,-0.010376,0.0106201,
1140,-0.0183105,0.0106018,
1142,0.000610352,0.0104492,
1144,-0.0152588,0.0104004,
1146,-0.00793457,0.0104431,
1148,-0.00610352,0.0104858,
1150,0.000610352,0.0104736,
1152,0.0012207,0.010376,
1154,-0.0012207,0.0103088,
1156,-0.012207,0.0102905,
1158,0.0115967,0.0103333,
1160,0.000610352,0.0103088,
1162,-0.00732422,0.0103088,
1164,-0.00244141,0.0102356,
1166,-0.00366211,0.0101868,
1168,-0.00854492,0.0102173,
1170,-0.00915527,0.0101563,
1172,0.00183105,0.00998535,
1174,0.0183105,0.010083,
1176,0.032959,0.0103394,
1178,0.00610352,0.0100647,
1180,-0.022583,0.0100952,
1182,0.0274658,0.0102295,
1184,0.0152588,0.0102173,
1186,-0.0128174,0.0102783,
1188,-0.00976563,0.0103271,
1190,-0.00671387,0.0103638,
1192,-0.0177002,0.0105347,
1194,-0.0250244,0.0107666,
1196,0.00183105,0.0107483,
1198,-0.0177002,0.0108459,
1200,-0.00427246,0.0108459,
1202,-0.00732422,0.0109009,
1204,-0.0109863,0.0108398,
1206,-0.00427246,0.0106934,
1208,-0.0134277,0.0107544,
1210,-0.00671387,0.0105103,
1212,-0.0128174,0.0105469,
1214,-0.00915527,0.0102966,
1216,0.00183105,0.0103088,
1218,-0.00732422,0.010376,
1220,-0.00610352,0.0104187,
1222,-0.00610352,0.010437,
1224,-0.00488281,0.010321,
1226,-0.0012207,0.0102722,
1228,-0.00610352,0.0100952,
1230,-0.00610352,0.00996094,
1232,0.00244141,0.00990601,
1234,-0.00549316,0.0098877,
1236,0.0158691,0.00991821,
1238,-0.0213623,0.00975952,
1240,0.00488281,0.00963745,
1242,0.0134277,0.00911865,
1244,0.0384521,0.00925293,
1246,-0.010376,0.00924683,
1248,-0.0274658,0.00940552,
1250,0.00854492,0.00921021,
1252,-0.0115967,0.00904541,
1254,-0.00915527,0.00901489,
1256,-0.0238037,0.00913696,
1258,-0.0317383,0.00933228,
1260,-0.0231934,0.00952759,
1262,-0.0109863,0.00959473,
1264,-0.00732422,0.00966187,
1266,0,0.00964966,
1268,0.000610352,0.00962524,
1270,-0.0195313,0.00979614,
1272,0.00427246,0.00980835,
1274,0.00366211,0.00980225,
1276,-0.00610352,0.00985107,
1278,-0.00854492,0.00988159,
1280,-0.00488281,0.00992432,
1282,-0.00488281,0.00993042,
1284,-0.00915527,0.0100098,
1286,0.0115967,0.0101135,
1288,0.0170898,0.0102356,
1290,-0.00976563,0.0102844,
1292,0.00244141,0.0102051,
1294,-0.00854492,0.01026,
1296,0.00427246,0.0102234,
1298,0.0299072,0.0104858,
1300,-0.00671387,0.0105408,
1302,-0.0146484,0.0105469,
1304,0.00305176,0.0105408,
1306,0.032959,0.0108337,
1308,-0.00549316,0.0105469,
1310,-0.0170898,0.0106567,
1312,0.000610352,0.0105957,
1314,0.0354004,0.0108826,
1316,0.0134277,0.0109192,
1318,-0.0250244,0.0111267,
1320,-0.0537109,0.0115723,
1322,0.0109863,0.0116699,
1324,0.000610352,0.0114441,
1326,-0.0146484,0.0114746,
1328,-0.0292969,0.011676,
1330,-0.0280762,0.0119568,
1332,-0.012207,0.0119995,
1334,-0.00915527,0.0119141,
1336,0.010376,0.0117676,
1338,0.00854492,0.0117493,
1340,0.0012207,0.0115784,
1342,-0.00244141,0.0115967,
1344,0.00610352,0.0115051,
1346,0.00549316,0.0114807,
1348,-0.0152588,0.0115723,
1350,-0.000610352,0.0115723,
1352,0.000610352,0.0115662,
1354,-0.0183105,0.0117371,
1356,-0.00488281,0.0116638,
1358,-0.00244141,0.0115723,
1360,-0.00488281,0.011615,
1362,-0.00732422,0.011615,
1364,-0.000610352,0.0115967,
1366,0,0.0115601,
1368,-0.010376,0.0115784,
1370,0.0170898,0.0116577,
1372,0.000610352,0.0116455,
1374,0.00366211,0.011499,
1376,-0.00305176,0.0112,
1378,-0.00427246,0.0111816,
1380,0,0.0109558,
1382,0.00854492,0.0107666,
1384,0.0146484,0.0107605,
1386,0.0274658,0.010907,
1388,-0.032959,0.0111389,
1390,-0.0341797,0.0114136,
1392,0.020752,0.0114441,
1394,0.00183105,0.0112122,
1396,0.00183105,0.0112122,
1398,-0.0201416,0.0112366,
1400,-0.0445557,0.0116394,
1402,-0.00244141,0.0115906,
1404,-0.00488281,0.0115295,
1406,-0.00732422,0.0115601,
1408,-0.00610352,0.0114868,
1410,-0.00610352,0.0114807,
1412,-0.00549316,0.0114075,
1414,-0.00488281,0.0113647,
1416,0.00488281,0.0113953,
1418,-0.00976563,0.0114197,
1420,0.00427246,0.0114014,
1422,0.0115967,0.0114563,
1424,-0.00305176,0.011438,
1426,-0.0183105,0.0116089,
1428,0.00732422,0.0116211,
1430,-0.00427246,0.0116028,
1432,0.00610352,0.0116394,
1434,-0.00549316,0.0116394,
1436,-0.00488281,0.0115295,
1438,0.0158691,0.0114746,
1440,-0.0109863,0.0115356,
1442,-0.00976563,0.011499,
1444,0.00366211,0.0111511,
1446,-0.00610352,0.0111084,
1448,-0.0170898,0.0110046,
1450,-0.0109863,0.0110291,
1452,0.0012207,0.0109253,
1454,-0.0341797,0.0111755,
1456,-0.00183105,0.0109558,
1458,0.00976563,0.0107361,
1460,-0.0128174,0.0106323,
1462,0.00976563,0.0106201,
1464,0.0286865,0.0108337,
1466,0.00915527,0.0109253,
1468,-0.00488281,0.010968,
1470,-0.0256348,0.0110291,
1472,0.0146484,0.0111328,
1474,0.0146484,0.0112427,
1476,-0.0231934,0.0114136,
1478,-0.0164795,0.0114929,
1480,-0.0134277,0.0115784,
1482,-0.010376,0.0116333,
1484,-0.0183105,0.0117249,
1486,0.000610352,0.011615,
1488,-0.0012207,0.0114563,
1490,-0.012207,0.0114807,
1492,-0.00305176,0.0114868,
1494,0.00549316,0.0114563,
1496,-0.00366211,0.0114502,
1498,0.00488281,0.0112,
1500,0.00915527,0.0112244,
1502,-0.020752,0.0112854,
1504,-0.00244141,0.0112793,
1506,0.00610352,0.0110107,
1508,-0.00488281,0.0110046,
1510,-0.012207,0.0109558,
1512,-0.00366211,0.0109863,
1514,-0.00366211,0.0106689,
1516,0.0109863,0.0106445,
1518,0.00244141,0.0104187,
1520,-0.0128174,0.0100098,
1522,0.00915527,0.00999146,
1524,0.000610352,0.00999146,
1526,-0.0115967,0.00996094,
1528,-0.0109863,0.00977783,
1530,0.00732422,0.00957031,
1532,0.0115967,0.00956421,
1534,0.00793457,0.009552,
1536,0.00183105,0.00946655,
1538,-0.00671387,0.00944824,
1540,-0.0189209,0.00962524,
1542,0.022583,0.00982666,
1544,-0.00793457,0.00984497,
1546,0.00976563,0.0098877,
1548,-0.0152588,0.0098877,
1550,-0.0244141,0.0101257,
1552,0.00671387,0.0101868,
1554,-0.00549316,0.0100586,
1556,0.0012207,0.010022,
1558,-0.00427246,0.0100403,
1560,-0.00732422,0.0100647,
1562,-0.00671387,0.0100586,
1564,-0.000610352,0.0100586,
1566,-0.0158691,0.0102173,
1568,-0.012207,0.0102356,
1570,-0.000610352,0.0100708,
1572,0.00305176,0.0100952,
1574,0.00244141,0.010083,
1576,-0.00610352,0.0101135,
1578,-0.0115967,0.0101868,
1580,0.0238037,0.0104248,
1582,-0.0115967,0.0104553,
1584,-0.00610352,0.0103699,
1586,0.00305176,0.0101257,
1588,0.000610352,0.00980225,
1590,0.0177002,0.00963745,
1592,-0.00976563,0.00952759,
1594,-0.0219727,0.009729,
1596,0.00427246,0.00975342,
1598,0.00488281,0.00960083,
1600,0,0.00915527,
1602,-0.00732422,0.0092041,
1604,-0.0140381,0.00929565,
1606,-0.00732422,0.00929565,
1608,-0.00427246,0.00927734,
1610,0.0109863,0.00932617,
1612,0.00610352,0.00933228,
1614,0.0183105,0.00946655,
1616,-0.00244141,0.00944214,
1618,0.00427246,0.00938721,
1620,-0.0244141,0.00958862,
1622,0.022583,0.00969849,
1624,-0.0140381,0.00980835,
1626,-0.00976563,0.0097229,
1628,-0.0244141,0.0098938,
1630,-0.0219727,0.0100708,
1632,-0.012207,0.0101318,
1634,-0.0177002,0.0102539,
1636,-0.00244141,0.0102295,
1638,0.00427246,0.0101135,
1640,-0.00244141,0.0100281,
1642,0,0.00993042,
1644,-0.0128174,0.010022,
1646,0.0213623,0.0101746,
1648,0.0183105,0.0101868,
1650,-0.0274658,0.0103516,
1652,-0.00244141,0.0103638,
1654,0.000610352,0.0100281,
1656,-0.00671387,0.0100769,
1658,-0.012207,0.0101013,
1660,-0.00244141,0.00999756,
1662,-0.00610352,0.00996094,
1664,-0.0128174,0.00980225,
1666,-0.00793457,0.00979004,
1668,0.010376,0.00984497,
1670,0.00427246,0.00963135,
1672,0.0140381,0.00962524,
1674,0.0115967,0.00959473,
1676,-0.00488281,0.00941162,
1678,-0.0201416,0.00944824,
1680,0.0134277,0.00944824,
1682,0.00305176,0.009375,
1684,-0.0164795,0.00935669,
1686,-0.012207,0.00947266,
1688,-0.00732422,0.00953369,
1690,-0.00244141,0.00943604,
1692,0.00732422,0.00947876,
1694,-0.00549316,0.00947876,
1696,-0.00488281,0.00949097,
1698,0.0140381,0.00958252,
1700,-0.00732422,0.00956421,
1702,0.00488281,0.00940552,
1704,0.0170898,0.009552,
1706,0.0146484,0.00963745,
1708,-0.00244141,0.00961304,
1710,-0.00244141,0.00951538,
1712,0.0189209,0.00966797,
1714,-0.00915527,0.0097229,
1716,0.00732422,0.00968628,
1718,-0.00488281,0.00971069,
1720,-0.0134277,0.0097168,
1722,-0.0183105,0.00980835,
1724,-0.0146484,0.00994873,
1726,0.00488281,0.00988159,
1728,0.00488281,0.00982056,
1730,-0.0170898,0.00991821,
1732,0.00427246,0.00984497,
1734,0.000610352,0.00977173,
1736,0.00366211,0.00979004,
1738,-0.0012207,0.00973511,
1740,0,0.0095459,
1742,-0.00183105,0.00933838,
1744,-0.00427246,0.00930176,
1746,0.00976563,0.00930176,
1748,0.00976563,0.00924683,
1750,-0.00366211,0.00903931,
1752,-0.00915527,0.00906372,
1754,-0.0012207,0.009021,
1756,0.0219727,0.00922852,
1758,-0.0170898,0.00935669,
1760,-0.0219727,0.00950317,
1762,-0.0134277,0.00957031,
1764,-0.00427246,0.00960693,
1766,-0.00244141,0.00947266,
1768,-0.00732422,0.00942383,
1770,-0.012207,0.00953979,
1772,-0.00732422,0.00958252,
1774,-0.00305176,0.00958862,
1776,0.00366211,0.00956421,
1778,0.0134277,0.00958252,
1780,0.010376,0.00944824,
1782,0.0115967,0.00944824,
1784,-0.0244141,0.00963135,
1786,0.00549316,0.00965576,
1788,0.00732422,0.0097229,
1790,-0.00305176,0.00957642,
1792,0.0115967,0.00959473,
1794,-0.0378418,0.00975342,
1796,-0.0219727,0.00993042,
1798,-0.000610352,0.0098877,
1800,-0.00793457,0.00996704,
1802,-0.0152588,0.0100464,
1804,-0.000610352,0.00991211,
1806,-0.00183105,0.00985718,
1808,0.00488281,0.00986328,
1810,-0.00732422,0.00982666,
1812,0.00854492,0.00985107,
1814,0.020752,0.00987549,
1816,-0.00244141,0.00987549,
1818,0.0238037,0.0100708,
1820,-0.0213623,0.0100403,
1822,-0.020752,0.010022,
1824,0.00610352,0.00994263,
1826,0.000610352,0.00985107,
1828,-0.010376,0.00971069,
1830,-0.0335693,0.00982666,
1832,-0.0286865,0.00999146,
1834,-0.00549316,0.00986938,
1836,-0.00427246,0.0098877,
1838,-0.00732422,0.00991821,
1840,-0.0146484,0.0100403,
1842,-0.0140381,0.0101807,
1844,-0.00732422,0.0101257,
1846,-0.00671387,0.00997925,
1848,-0.00915527,0.0098877,
1850,-0.00366211,0.00964966,
1852,0.00732422,0.00969849,
1854,-0.0177002,0.00986938,
1856,-0.00366211,0.00983887,
1858,0.0286865,0.0100037,
1860,0.0012207,0.00999146,
1862,-0.0134277,0.0100647,
1864,0.00915527,0.0100281,
1866,0.0201416,0.0101501,
1868,0.0231934,0.0102783,
1870,-0.0378418,0.010614,
1872,-0.0146484,0.0106201,
1874,0.0299072,0.0108032,
1876,-0.0146484,0.0109009,
1878,-0.0256348,0.0109558,
1880,0,0.0108215,
1882,-0.0158691,0.0109497,
1884,-0.0177002,0.0109619,
1886,0.00183105,0.0108582,
1888,-0.0134277,0.0109192,
1890,-0.0195313,0.0110901,
1892,0.00671387,0.011084,
1894,-0.00854492,0.0111145,
1896,-0.0164795,0.0112305,
1898,-0.00732422,0.0111633,
1900,-0.00793457,0.0111694,
1902,-0.010376,0.0112244,
1904,-0.010376,0.0111572,
1906,0.012207,0.0111328,
1908,0.012207,0.0112305,
1910,-0.0280762,0.0114868,
1912,-0.0164795,0.0114624,
1914,0,0.0113708,
1916,0,0.0112976,
1918,-0.010376,0.0113525,
1920,-0.0115967,0.0113342,
1922,-0.0177002,0.0113281,
1924,-0.012207,0.0113037,
1926,0.00183105,0.0112732,
1928,-0.00244141,0.0112488,
1930,-0.0109863,0.0111877,
1932,0.00183105,0.0111633,
1934,-0.00183105,0.0111755,
1936,0.00732422,0.0112122,
1938,0.0292969,0.0114929,
1940,-0.0140381,0.0116333,
1942,-0.010376,0.0117188,
1944,-0.00366211,0.0117126,
1946,0.00610352,0.011676,
1948,-0.00671387,0.0116455,
1950,-0.0164795,0.0117737,
1952,-0.0164795,0.0118469,
1954,-0.00610352,0.0118958,
1956,-0.0012207,0.0116882,
1958,-0.00488281,0.0115662,
1960,0.000610352,0.0113525,
1962,0.000610352,0.0112244,
1964,-0.00671387,0.0112488,
1966,-0.00244141,0.0112488,
1968,-0.00244141,0.0112,
1970,-0.00671387,0.011145,
1972,-0.00305176,0.0111023,
1974,-0.0299072,0.0113708,
1976,0.00610352,0.0113953,
1978,-0.00305176,0.0112915,
1980,-0.00671387,0.0112549,
1982,-0.00610352,0.0112,
1984,-0.012207,0.0110779,
1986,-0.00915527,0.0111145,
1988,0.00305176,0.0110718,
1990,0.012207,0.0111633,
1992,-0.00366211,0.011084,
1994,-0.0152588,0.0108582,
1996,-0.00488281,0.0106873,
1998,0.0134277,0.0108154,
2000,-0.0140381,0.0108765,
2002,-0.0128174,0.0108521,
2004,-0.0146484,0.0109924,
2006,-0.0140381,0.0111145,
2008,-0.0177002,0.0112427,
2010,-0.0158691,0.0113281,
2012,-0.010376,0.0113464,
2014,0.00366211,0.0111755,
2016,0.0231934,0.0113831,
2018,-0.0170898,0.0113159,
2020,-0.00427246,0.011145,
2022,0,0.0109375,
2024,-0.00244141,0.0109009,
2026,0.00183105,0.0109131,
2028,-0.0189209,0.0109985,
2030,-0.00915527,0.0107544,
2032,-0.00305176,0.010498,
2034,-0.0140381,0.0105835,
2036,0,0.0105408,
2038,0.0195313,0.0106628,
2040,-0.0164795,0.0106812,
2042,-0.0164795,0.0107056,
2044,-0.000610352,0.0106384,
2046,0.000610352,0.0105774,
2048,-0.0146484,0.0106323,
2050,-0.00610352,0.0106567,
2052,-0.00732422,0.0106567,
2054,-0.0183105,0.0106628,
2056,-0.00366211,0.0106628,
2058,-0.00549316,0.0104309,
2060,-0.00366211,0.0104553,
2062,0.00793457,0.0104004,
2064,0.0213623,0.0105225,
2066,-0.00305176,0.0103516,
2068,-0.0238037,0.0103577,
2070,-0.0134277,0.0101135,
2072,0.0170898,0.0101379,
2074,-0.0128174,0.00996704,
2076,-0.00793457,0.0098999,
2078,-0.0189209,0.00983276,
2080,-0.0109863,0.00994263,
2082,0,0.00978394,
2084,-0.0134277,0.00974121,
2086,0,0.0097229,
2088,0.0109863,0.00969849,
2090,0.00244141,0.00952759,
2092,0.00549316,0.00951538,
2094,-0.00244141,0.00945435,
2096,-0.00671387,0.00935669,
2098,-0.00183105,0.00930176,
2100,0.00366211,0.00925903,
2102,0.0238037,0.00939331,
2104,0.00915527,0.0093811,
2106,-0.0354004,0.00961304,
2108,-0.00305176,0.00952148,
2110,0.00976563,0.00933838,
2112,0.00183105,0.00919189,
2114,-0.0128174,0.00932007,
2116,-0.00488281,0.0093689,
2118,-0.012207,0.00938721,
2120,-0.0177002,0.00944824,
2122,-0.00366211,0.00930786,
2124,0.00183105,0.0092041,
2126,0.00305176,0.00921631,
2128,-0.0183105,0.009375,
2130,-0.0012207,0.00927734,
2132,0.0012207,0.00927124,
2134,0.000610352,0.00925903,
2136,0.00671387,0.00925293,
2138,0.00549316,0.00901489,
2140,0.00732422,0.00894775,
2142,0.0115967,0.00895996,
2144,-0.0311279,0.00923462,
2146,0.00366211,0.00921021,
2148,-0.00244141,0.00916748,
2150,0.0012207,0.00901489,
2152,0.0012207,0.0088623,
2154,-0.0311279,0.00911255,
2156,-0.0183105,0.00928345,
2158,0.00183105,0.00925293,
2160,-0.00244141,0.00927124,
2162,-0.00488281,0.00931396,
2164,-0.00854492,0.00933228,
2166,-0.00183105,0.00932617,
2168,-0.0158691,0.00946045,
2170,-0.00793457,0.00947266,
2172,-0.00244141,0.00946655,
2174,-0.00854492,0.00925293,
2176,-0.00671387,0.00925903,
2178,-0.00732422,0.00930176,
2180,-0.00549316,0.00928955,
2182,0.00610352,0.00928955,
2184,-0.020752,0.009375,
2186,0.00366211,0.00932007,
2188,-0.00427246,0.00933228,
2190,0.0012207,0.00922241,
2192,0.010376,0.00928955,
2194,0.0170898,0.00930786,
2196,-0.0177002,0.00943604,
2198,-0.0164795,0.00946655,
2200,0,0.00932617,
2202,0.00549316,0.00925293,
2204,-0.0134277,0.00924072,
2206,-0.0158691,0.00925903,
2208,-0.00976563,0.00917969,
2210,0.00427246,0.00906372,
2212,-0.00427246,0.00900269,
2214,-0.0244141,0.00921021,
2216,0.00793457,0.00905762,
2218,-0.00427246,0.00892944,
2220,0.00244141,0.00891113,
2222,0.00549316,0.00896606,
2224,-0.0183105,0.00912476,
2226,-0.00244141,0.00913086,
2228,0.0238037,0.00917969,
2230,-0.0140381,0.00922852,
2232,-0.0268555,0.00946655,
2234,0.00366211,0.00936279,
2236,0.00793457,0.00944214,
2238,-0.0177002,0.00942383,
2240,-0.012207,0.0093811,
2242,-0.0146484,0.00936279,
2244,-0.00976563,0.00945435,
2246,-0.00427246,0.00949097,
2248,-0.00244141,0.0093689,
2250,-0.00671387,0.009375,
2252,0.00366211,0.00933838,
2254,0.000610352,0.00916138,
2256,-0.00793457,0.0092041,
2258,-0.00488281,0.009198,
2260,0.00183105,0.00917969,
2262,-0.000610352,0.00910645,
2264,-0.00671387,0.00895996,
2266,0.00183105,0.00894775,
2268,0,0.00870972,
2270,-0.00305176,0.00860596,
2272,-0.0158691,0.00859375,
2274,0.00549316,0.00852051,
2276,-0.00183105,0.00845947,
2278,-0.00732422,0.00834351,
2280,0.0012207,0.00824585,
2282,0.00244141,0.00827026,
2284,-0.0164795,0.00830078,
2286,-0.00976563,0.00839844,
2288,-0.010376,0.00839233,
2290,0.00488281,0.00841675,
2292,0.00732422,0.00843506,
2294,-0.0115967,0.00852661,
2296,-0.0189209,0.00864868,
2298,-0.0183105,0.00881348,
2300,0.00366211,0.00881348,
2302,0.0341797,0.00891724,
2304,0.0256348,0.00908203,
2306,-0.0604248,0.00933228,
2308,-0.0177002,0.00947876,
2310,0.012207,0.00950317,
2312,0.0012207,0.00949707,
2314,-0.00793457,0.00944824,
2316,-0.0323486,0.0097229,
2318,-0.0305176,0.00990601,
2320,-0.00915527,0.00982056,
2322,-0.00427246,0.00982666,
2324,-0.00732422,0.00988159,
2326,-0.00183105,0.00986938,
2328,-0.0012207,0.00969849,
2330,-0.00488281,0.00973511,
2332,0.0012207,0.00973511,
2334,-0.00549316,0.00978394,
2336,0.0012207,0.009729,
2338,-0.00244141,0.00969849,
2340,-0.00305176,0.00965576,
2342,0.00549316,0.00959473,
2344,0.00305176,0.00931396,
2346,-0.00244141,0.00930176,
2348,-0.0170898,0.00944824,
2350,0.00610352,0.00949707,
2352,0.010376,0.00958862,
2354,0.00915527,0.0093689,
2356,0.00732422,0.00925903,
2358,-0.00610352,0.00930176,
2360,-0.012207,0.00939941,
2362,-0.00305176,0.0093811,
2364,0.00793457,0.009375,
2366,-0.00366211,0.00939331,
2368,-0.0128174,0.00936279,
2370,0,0.00928345,
2372,-0.0256348,0.00951538,
2374,-0.0134277,0.00956421,
2376,-0.00183105,0.00951538,
2378,0.00671387,0.00950928,
2380,0.0256348,0.00971069,
2382,-0.00793457,0.009729,
2384,-0.0305176,0.00982666,
2386,0.0115967,0.00990601,
2388,0.00610352,0.00992432,
2390,-0.00488281,0.00996094,
2392,-0.0128174,0.00998535,
2394,-0.0158691,0.00997314,
2396,-0.00427246,0.00983887,
2398,-0.00549316,0.009729,
2400,-0.00610352,0.00979004,
2402,-0.00915527,0.00982666,
2404,0.0195313,0.0098877,
2406,0.0109863,0.00983887,
2408,-0.0177002,0.00991821,
2410,-0.00366211,0.00991211,
2412,0.00183105,0.0098877,
2414,-0.00488281,0.00969238,
2416,0.0012207,0.00962524,
2418,-0.00305176,0.00961304,
2420,-0.00976563,0.00968628,
2422,-0.00305176,0.00966187,
2424,-0.00854492,0.00956421,
2426,0.00854492,0.00962524,
2428,-0.000610352,0.00939331,
2430,-0.00671387,0.00932007,
2432,-0.00183105,0.00906982,
2434,-0.00610352,0.00909424,
2436,0.00732422,0.00908813,
2438,0.00305176,0.00894165,
2440,-0.000610352,0.00882568,
2442,0.000610352,0.0086853,
2444,-0.010376,0.00869141,
2446,-0.00793457,0.00872803,
2448,0,0.00870361,
2450,-0.00610352,0.00869751,
2452,0.0134277,0.00879517,
2454,0.00732422,0.0088623,
2456,-0.00244141,0.00880737,
2458,-0.0146484,0.00890503,
2460,0.03479,0.00923462,
2462,0.00732422,0.00930176,
2464,-0.0213623,0.00944824,
2466,-0.00549316,0.00948486,
2468,-0.000610352,0.00949097,
2470,-0.0268555,0.009729,
2472,-0.0158691,0.009729,
2474,-0.0109863,0.00978394,
2476,-0.00976563,0.00986328,
2478,-0.00427246,0.00983276,
2480,0.000610352,0.00982666,
2482,0.000610352,0.00980835,
2484,-0.0128174,0.00977173,
2486,0.00549316,0.009729,
2488,0.00671387,0.00969238,
2490,-0.000610352,0.00964966,
2492,-0.0109863,0.00968628,
2494,-0.020752,0.00977783,
2496,-0.000610352,0.00959473,
2498,-0.00854492,0.00949707,
2500,-0.010376,0.00956421,
2502,-0.00183105,0.00924072,
2504,-0.0128174,0.00911255,
2506,-0.00671387,0.00857544,
2508,0.00244141,0.00842285,
2510,0.0250244,0.00855103,
2512,0.00427246,0.00858154,
2514,-0.0219727,0.00872192,
2516,0.0183105,0.00858154,
2518,0.00732422,0.00834961,
2520,-0.0170898,0.00842896,
2522,-0.00610352,0.00844727,
2524,-0.00915527,0.00846558,
2526,-0.00488281,0.00849609,
2528,-0.0115967,0.00859985,
2530,-0.00915527,0.00864258,
2532,0.00610352,0.00869141,
2534,-0.012207,0.00875854,
2536,-0.00427246,0.00878906,
2538,0.00854492,0.0088501,
2540,-0.00244141,0.00884399,
2542,0.00549316,0.00884399,
2544,-0.00610352,0.00887451,
2546,-0.00183105,0.00886841,
2548,0.0213623,0.00891113,
2550,0.0189209,0.00903931,
2552,-0.0109863,0.00904541,
2554,-0.000610352,0.00895996,
2556,0.00244141,0.00891113,
2558,0.00854492,0.00893555,
2560,-0.0183105,0.00899658,
2562,-0.0219727,0.00918579,
2564,-0.0134277,0.00924072,
2566,-0.00183105,0.00922241,
2568,0.00549316,0.00914917,
2570,-0.0158691,0.00930786,
2572,-0.0189209,0.00924072,
2574,0,0.00910645,
2576,0.0305176,0.00939331,
2578,-0.00488281,0.009375,
2580,-0.0219727,0.00933838,
2582,0.00244141,0.00928345,
2584,0.00305176,0.00900879,
2586,-0.0012207,0.00890503,
2588,0.00488281,0.00889282,
2590,-0.0170898,0.00901489,
2592,0.00732422,0.00895996,
2594,-0.010376,0.00890503,
2596,-0.00488281,0.00891113,
2598,0.00854492,0.00894165,
2600,-0.00305176,0.00891113,
2602,-0.00671387,0.00888672,
2604,0.00366211,0.00872803,
2606,-0.00549316,0.0086731,
2608,-0.00305176,0.00852661,
2610,-0.000610352,0.00849609,
2612,0.00366211,0.0085144,
2614,-0.00732422,0.00853882,
2616,-0.012207,0.00864868,
2618,-0.00366211,0.00865479,
2620,-0.00366211,0.00859375,
2622,-0.00183105,0.00858154,
2624,0.00610352,0.00855713,
2626,0.00732422,0.00854492,
2628,0.012207,0.00866089,
2630,-0.00854492,0.0086792,
2632,0.0152588,0.00881348,
2634,0.0158691,0.00891113,
2636,-0.0140381,0.00897827,
2638,-0.022583,0.00917358,
2640,-0.000610352,0.00917358,
2642,-0.00427246,0.00921021,
2644,-0.0158691,0.00926514,
2646,-0.0146484,0.00933228,
2648,-0.0183105,0.00951538,
2650,-0.0012207,0.00946655,
2652,0.0146484,0.00947876,
2654,0.0012207,0.00941772,
2656,0.00183105,0.00941162,
2658,0.0012207,0.00927734,
2660,-0.00183105,0.00894775,
2662,0.000610352,0.00888062,
2664,0,0.00866699,
2666,-0.010376,0.00871582,
2668,-0.0109863,0.00881958,
2670,-0.00183105,0.00856934,
2672,-0.00976563,0.0085083,
2674,0.00183105,0.00841675,
2676,0.00854492,0.00840454,
2678,0.00488281,0.00841064,
2680,-0.00976563,0.0085022,
2682,0.00244141,0.00852051,
2684,0.0219727,0.00861206,
2686,0.0195313,0.00875244,
2688,-0.0482178,0.00916748,
2690,-0.00671387,0.00922852,
2692,0.0109863,0.00922852,
2694,-0.0170898,0.00919189,
2696,-0.0158691,0.00934448,
2698,-0.0146484,0.00940552,
2700,-0.0134277,0.00943604,
2702,-0.00610352,0.00947876,
2704,-0.00671387,0.00941772,
2706,-0.0012207,0.00936279,
2708,0.00366211,0.009375,
2710,0.0219727,0.00934448,
2712,0.012207,0.00942383,
2714,-0.0183105,0.00938721,
2716,-0.00549316,0.00925903,
2718,0.00915527,0.00927734,
2720,0.00732422,0.00917969,
2722,-0.0140381,0.00925903,
2724,-0.0109863,0.00927734,
2726,-0.0274658,0.00950317,
2728,-0.00915527,0.00947876,
2730,-0.00305176,0.00941772,
2732,0.00915527,0.00944824,
2734,-0.0250244,0.00957642,
2736,-0.00671387,0.00960083,
2738,-0.0140381,0.00965576,
2740,-0.00183105,0.00964966,
2742,0.00183105,0.00961304,
2744,-0.00793457,0.00963135,
2746,-0.00549316,0.00966797,
2748,-0.00549316,0.00950928,
2750,-0.00610352,0.0093811,
2752,0.0164795,0.00943604,
2754,0.00793457,0.00950928,
2756,0.0109863,0.00959473,
2758,-0.0195313,0.00970459,
2760,0.00549316,0.00957642,
2762,0.0183105,0.00953979,
2764,0.0012207,0.00941772,
2766,-0.00305176,0.00942993,
2768,-0.0170898,0.0095459,
2770,-0.00488281,0.00943604,
2772,0.0146484,0.00939331,
2774,0.0134277,0.00952759,
2776,0.00305176,0.00925293,
2778,-0.0177002,0.0093811,
2780,0.0164795,0.00932617,
2782,0.00244141,0.00932617,
2784,-0.0250244,0.0095459,
2786,0.0012207,0.0095459,
2788,-0.0177002,0.00967407,
2790,-0.020752,0.00971069,
2792,-0.00915527,0.009729,
2794,-0.0134277,0.00975952,
2796,0.0164795,0.00987549,
2798,0.0012207,0.00980225,
2800,-0.0195313,0.00996704,
2802,0,0.0098999,
2804,0.00610352,0.00992432,
2806,0.000610352,0.00987549,
2808,-0.00854492,0.00993042,
2810,-0.0408936,0.0103333,
2812,-0.00427246,0.0103394,
2814,0.00305176,0.0102966,
2816,0.00366211,0.0102112,
2818,-0.00915527,0.0102661,
2820,-0.0250244,0.0104797,
2822,0.0158691,0.0106201,
2824,-0.00610352,0.0106201,
2826,0.00305176,0.0105774,
2828,0.0134277,0.0105896,
2830,-0.0109863,0.010614,
2832,-0.0170898,0.0106323,
2834,-0.00976563,0.0105713,
2836,0.0109863,0.0105408,
2838,0.0115967,0.0104309,
2840,-0.0012207,0.010437,
2842,-0.0146484,0.0105408,
2844,0.00366211,0.0104187,
2846,0,0.0102722,
2848,-0.012207,0.0102112,
2850,-0.010376,0.0103027,
2852,0.000610352,0.0101624,
2854,-0.0213623,0.0103638,
2856,-0.0158691,0.0105042,
2858,-0.00427246,0.0105347,
2860,-0.0146484,0.0106628,
2862,0.012207,0.0107788,
2864,-0.00793457,0.0108582,
2866,-0.0109863,0.0108643,
2868,0.00549316,0.0108093,
2870,0.0164795,0.0109558,
2872,-0.00366211,0.0108948,
2874,-0.0244141,0.0111206,
2876,-0.00488281,0.011084,
2878,-0.0012207,0.0110474,
2880,-0.00610352,0.0110107,
2882,-0.000610352,0.0109924,
2884,-0.00488281,0.0108215,
2886,-0.00427246,0.0106689,
2888,-0.000610352,0.0101929,
2890,-0.00671387,0.0101929,
2892,0.00427246,0.0101257,
2894,-0.00244141,0.00997925,
2896,0.012207,0.00994263,
2898,-0.0164795,0.00996094,
2900,-0.00244141,0.00985107,
2902,0.00915527,0.00988159,
2904,-0.0134277,0.00994873,
2906,-0.00610352,0.00999756,
2908,-0.00244141,0.00998535,
2910,0,0.00976563,
2912,0.012207,0.00976563,
2914,0.000610352,0.00958862,
2916,-0.0152588,0.00968628,
2918,0.00305176,0.00962524,
2920,0.00915527,0.00964355,
2922,-0.000610352,0.00950928,
2924,0.00793457,0.00947876,
2926,-0.00671387,0.00927124,
2928,-0.0317383,0.00949707,
2930,-0.00183105,0.00948486,
2932,0.00549316,0.00944824,
2934,0.0012207,0.00921021,
2936,0.00671387,0.00921021,
2938,-0.0274658,0.00934448,
2940,-0.0140381,0.00946655,
2942,0.00366211,0.00948486,
2944,-0.00610352,0.00946655,
2946,-0.00366211,0.00944824,
2948,-0.0146484,0.00953979,
2950,-0.00732422,0.009552,
2952,0.0152588,0.00953979,
2954,-0.0140381,0.00960083,
2956,0.00915527,0.00958252,
2958,0.0323486,0.00971069,
2960,-0.00610352,0.0097168,
2962,-0.00976563,0.00963135,
2964,0.0183105,0.00980225,
2966,-0.00427246,0.00981445,
2968,-0.00183105,0.00966187,
2970,-0.012207,0.00973511,
2972,-0.00183105,0.00960693,
2974,-0.00427246,0.00951538,
2976,-0.00549316,0.00953979,
2978,-0.0115967,0.00947876,
2980,0.0274658,0.00958862,
2982,0.00244141,0.00958862,
2984,-0.00915527,0.00942993,
2986,0.012207,0.00953979,
2988,0.00427246,0.00940552,
2990,-0.0140381,0.00933838,
2992,-0.00976563,0.00934448,
2994,-0.0140381,0.00935059,
2996,-0.00244141,0.00921021,
2998,-0.00854492,0.00928345,
3000,-0.0268555,0.00935669,
3002,-0.0128174,0.00948486,
3004,-0.00244141,0.00944824,
3006,0.00183105,0.00946045,
3008,0,0.009375,
3010,-0.00427246,0.00900879,
3012,-0.00549316,0.009021,
3014,0.00854492,0.00907593,
3016,-0.00366211,0.00907593,
3018,0.00671387,0.00905151,
3020,-0.00793457,0.00888062,
3022,-0.00671387,0.00878906,
3024,0.00366211,0.00876465,
3026,-0.00549316,0.00878906,
3028,-0.00793457,0.00873413,
3030,-0.00183105,0.00864258,
3032,0.00610352,0.00853271,
3034,0,0.00843506,
3036,-0.00854492,0.00841064,
3038,0.00305176,0.0083252,
3040,0.00305176,0.00834351,
3042,0.00366211,0.00823364,
3044,0.000610352,0.00820313,
3046,0.000610352,0.00820923,
3048,0,0.00808716,
3050,0.00244141,0.00800781,
3052,0.00915527,0.00809326,
3054,-0.00305176,0.00791016,
3056,-0.00305176,0.00778198,
3058,0.00976563,0.00783691,
3060,0.00305176,0.00772095,
3062,-0.00366211,0.0076355,
3064,-0.00732422,0.00762939,
3066,0.00427246,0.00756226,
3068,0.00244141,0.00753174,
3070,0.0012207,0.00737915,
3072,0.00549316,0.00739746,
3074,-0.00305176,0.00718384,
3076,0.012207,0.00725708,
3078,0.00854492,0.00733032,
3080,0.0158691,0.00742798,
3082,0.00488281,0.0074707,
3084,-0.0183105,0.00760498,
3086,-0.0146484,0.00770874,
3088,0.00427246,0.00774536,
3090,-0.00488281,0.00772705,
3092,-0.0164795,0.00784912,
3094,-0.032959,0.0081543,
3096,-0.00366211,0.00806885,
3098,-0.00244141,0.00792847,
3100,-0.0128174,0.00803223,
3102,-0.00366211,0.00797729,
3104,0.0109863,0.00795288,
3106,-0.0231934,0.00812378,
3108,-0.00427246,0.00814209,
3110,0.00488281,0.00819092,
3112,-0.00244141,0.00809326,
3114,-0.012207,0.00820923,
3116,-0.00183105,0.00807495,
3118,0.0140381,0.00818481,
3120,-0.00793457,0.00817261,
3122,-0.0134277,0.00830078,
3124,-0.000610352,0.00822754,
3126,0.00427246,0.00820313,
3128,-0.00732422,0.00795898,
3130,-0.0109863,0.00805054,
3132,-0.00427246,0.00803833,
3134,-0.0158691,0.00818481,
3136,-0.010376,0.00822144,
3138,-0.00915527,0.00803833,
3140,0.00549316,0.00795288,
3142,0.00244141,0.00794067,
3144,0.00183105,0.00789795,
3146,0.0109863,0.00797119,
3148,0.00549316,0.00787964,
3150,-0.0109863,0.00791626,
3152,-0.00549316,0.0078186,
3154,0.0140381,0.0078186,
3156,0.00671387,0.00779419,
3158,-0.0152588,0.00762329,
3160,-0.00732422,0.0076355,
3162,-0.0128174,0.00766602,
3164,-0.00244141,0.00750732,
3166,-0.00793457,0.00754395,
3168,-0.00427246,0.00756836,
3170,-0.00976563,0.00754395,
3172,-0.0128174,0.00765381,
3174,-0.0128174,0.00773926,
3176,-0.00915527,0.00777588,
3178,-0.0183105,0.00784302,
3180,-0.00610352,0.00762939,
3182,0.00915527,0.00769653,
3184,0.00854492,0.00769043,
3186,0.00305176,0.00759888,
3188,-0.022583,0.00778198,
3190,0.00671387,0.00770874,
3192,0.0262451,0.00787354,
3194,0.00244141,0.00775757,
3196,-0.022583,0.00795898,
3198,0.0115967,0.0079895,
3200,-0.0183105,0.00790405,
3202,0.00854492,0.00786133,
3204,-0.0201416,0.00803833,
3206,-0.00976563,0.00811768,
3208,-0.00854492,0.00820313,
3210,-0.0109863,0.00827026,
3212,-0.00732422,0.00828857,
3214,-0.00854492,0.00828857,
3216,-0.010376,0.00835571,
3218,-0.00854492,0.00837402,
3220,0.00610352,0.00835571,
3222,-0.00427246,0.0083313,
3224,-0.00305176,0.0083252,
3226,0.000610352,0.00827637,
3228,0.00305176,0.00822754,
3230,-0.0109863,0.00831909,
3232,-0.00549316,0.00831299,
3234,0.00244141,0.0083374,
3236,0.00854492,0.0083374,
3238,0.010376,0.00841064,
3240,-0.00793457,0.00845947,
3242,-0.00549316,0.00847778,
3244,0,0.00847168,
3246,0.00427246,0.0085083,
3248,-0.0146484,0.00865479,
3250,-0.00610352,0.00869141,
3252,-0.00366211,0.00863647,
3254,-0.00549316,0.00866089,
3256,-0.00366211,0.00866699,
3258,-0.0250244,0.00881958,
3260,-0.012207,0.00891113,
3262,0.00488281,0.00892334,
3264,-0.0115967,0.00896606,
3266,-0.010376,0.0090271,
3268,-0.00915527,0.00909424,
3270,-0.00854492,0.00916748,
3272,-0.00183105,0.00913086,
3274,-0.0109863,0.00921021,
3276,-0.00732422,0.00916138,
3278,0.00366211,0.00911255,
3280,0.00305176,0.00898438,
3282,0.0146484,0.00908203,
3284,-0.022583,0.00912476,
3286,-0.00671387,0.00904541,
3288,0.00732422,0.00907593,
3290,0.0146484,0.00917358,
3292,0.000610352,0.00901489,
3294,0.00305176,0.00871582,
3296,0.00244141,0.00870361,
3298,-0.0390625,0.00906982,
3300,0.00366211,0.00897827,
3302,0.0238037,0.00917969,
3304,-0.0189209,0.00925903,
3306,-0.0177002,0.0092041,
3308,0.000610352,0.00916748,
3310,0.0158691,0.00927734,
3312,0.00427246,0.00929565,
3314,-0.0012207,0.00918579,
3316,0.0134277,0.00930176,
3318,0.00549316,0.00921631,
3320,-0.0170898,0.00930786,
3322,-0.00854492,0.00925903,
3324,-0.00488281,0.00930176,
3326,-0.00854492,0.00934448,
3328,-0.0115967,0.00938721,
3330,-0.0219727,0.00949707,
3332,-0.0128174,0.00958252,
3334,0.0012207,0.00943604,
3336,-0.0170898,0.00950317,
3338,-0.0012207,0.00942383,
3340,-0.00732422,0.00944214,
3342,-0.00488281,0.00946655,
3344,-0.010376,0.009552,
3346,-0.00549316,0.00949707,
3348,0.00305176,0.00947266,
3350,-0.00488281,0.00941162,
3352,-0.00915527,0.00944824,
3354,0.00549316,0.00936279,
3356,0.00305176,0.00932617,
3358,0.000610352,0.00917969,
3360,-0.0012207,0.00911865,
3362,-0.00549316,0.00904541,
3364,-0.0012207,0.0090332,
3366,0.00183105,0.00897217,
3368,-0.0128174,0.00905762,
3370,0.00183105,0.00897827,
3372,0.00793457,0.00892944,
3374,-0.0146484,0.00894775,
3376,-0.010376,0.00895996,
3378,0.00854492,0.0088623,
3380,-0.00976563,0.00889893,
3382,-0.010376,0.00891113,
3384,0.00183105,0.00884399,
3386,-0.00366211,0.0088501,
3388,-0.00610352,0.0086853,
3390,0.00427246,0.00866089,
3392,0.0183105,0.00858154,
3394,-0.0152588,0.00870972,
3396,0.0012207,0.00849609,
3398,0.00305176,0.00841064,
3400,-0.00305176,0.00825806,
3402,0.00549316,0.00822754,
3404,0.00549316,0.00808105,
3406,0.0244141,0.00822754,
3408,-0.010376,0.00824585,
3410,-0.0231934,0.00836792,
3412,-0.00427246,0.0083374,
3414,0.0152588,0.00840454,
3416,0.00793457,0.00838013,
3418,-0.00305176,0.0083252,
3420,-0.0115967,0.00838013,
3422,-0.0164795,0.0085022,
3424,-0.00793457,0.00855103,
3426,-0.000610352,0.00855103,
3428,-0.0012207,0.00853271,
3430,-0.00610352,0.00848389,
3432,-0.00732422,0.0085022,
3434,-0.0140381,0.00861816,
3436,0.00305176,0.00856323,
3438,-0.000610352,0.00846558,
3440,-0.00610352,0.00844727,
3442,0.00732422,0.00846558,
3444,0.00854492,0.00855103,
3446,-0.0115967,0.00862427,
3448,0.000610352,0.00848389,
3450,-0.00305176,0.00845337,
3452,0.00366211,0.00845337,
3454,-0.0146484,0.00854492,
3456,-0.00305176,0.00853882,
3458,-0.00244141,0.00831299,
3460,-0.0177002,0.00836792,
3462,-0.00183105,0.0083374,
3464,-0.00244141,0.00824585,
3466,-0.00305176,0.00817261,
3468,0.00183105,0.00809937,
3470,-0.000610352,0.00802002,
3472,-0.00976563,0.00809937,
3474,-0.00305176,0.00802002,
3476,0.0152588,0.00809937,
3478,0,0.00806274,
3480,0.00366211,0.00806885,
3482,0.00793457,0.00800171,
3484,-0.012207,0.00789795,
3486,-0.00915527,0.00792236,
3488,0.00183105,0.00786743,
3490,-0.0012207,0.00773315,
3492,-0.000610352,0.00773315,
3494,-0.0189209,0.00789185,
3496,0.00366211,0.00790405,
3498,0.00610352,0.00757446,
3500,-0.0158691,0.00769653,
3502,0.00183105,0.00747681,
3504,0.0109863,0.00739746,
3506,0.00793457,0.0072998,
3508,0.010376,0.00739746,
3510,-0.00976563,0.00733643,
3512,-0.0170898,0.0074646,
3514,-0.00305176,0.00748291,
3516,-0.00610352,0.00740967,
3518,-0.0134277,0.00748901,
3520,-0.0128174,0.00744629,
3522,-0.0128174,0.00748901,
3524,-0.0115967,0.00755615,
3526,0.00183105,0.00748901,
3528,0.00305176,0.00740356,
3530,-0.00732422,0.00725708,
3532,-0.00488281,0.00717773,
3534,0.00976563,0.00726318,
3536,0.0012207,0.00710449,
3538,0.00427246,0.00713501,
3540,0.00671387,0.00712891,
3542,-0.0158691,0.00723877,
3544,-0.00488281,0.00718384,
3546,0.00549316,0.00718384,
3548,0.0115967,0.00726929,
3550,-0.0012207,0.00723267,
3552,-0.0109863,0.00725098,
3554,-0.010376,0.0072998,
3556,0.00427246,0.00731201,
3558,-0.000610352,0.00731201,
3560,-0.00915527,0.00739136,
3562,-0.00610352,0.00739746,
3564,-0.0115967,0.00750122,
3566,-0.0115967,0.00759888,
3568,-0.00305176,0.00750122,
3570,-0.00427246,0.00752563,
3572,-0.00732422,0.00751953,
3574,-0.0158691,0.00753174,
3576,0.00183105,0.00744629,
3578,-0.00854492,0.00744629,
3580,0.00305176,0.00737915,
3582,0.0115967,0.00739136,
3584,0.0115967,0.00748901,
3586,-0.000610352,0.0074585,
3588,-0.0164795,0.00756226,
3590,0.0201416,0.00772095,
3592,-0.00244141,0.00756226,
3594,-0.0109863,0.00751953,
3596,-0.00976563,0.00760498,
3598,-0.0140381,0.00771484,
3600,-0.0164795,0.00784912,
3602,-0.00671387,0.00786133,
3604,0.00305176,0.00783691,
3606,-0.010376,0.00769653,
3608,-0.00305176,0.00762329,
3610,0.0012207,0.00740356,
3612,-0.00305176,0.00739136,
3614,-0.012207,0.00736084,
3616,0.00244141,0.00730591,
3618,0.00488281,0.00732422,
3620,-0.0146484,0.00735474,
3622,-0.0109863,0.0072998,
3624,-0.00305176,0.00725098,
3626,0.0012207,0.00725708,
3628,0.00610352,0.00730591,
3630,-0.00305176,0.00727539,
3632,-0.0109863,0.00731201,
3634,-0.0164795,0.00733643,
3636,0.00854492,0.00739136,
3638,0.0183105,0.00756836,
3640,-0.0244141,0.00775146,
3642,-0.0183105,0.00786133,
3644,0.0012207,0.00778809,
3646,-0.010376,0.00777588,
3648,-0.00549316,0.00782471,
3650,-0.0134277,0.00792847,
3652,-0.00366211,0.00792847,
3654,-0.00671387,0.00784912,
3656,-0.00610352,0.00787964,
3658,0.0012207,0.00786743,
3660,0.00549316,0.00774536,
3662,-0.00305176,0.00775757,
3664,-0.00183105,0.00775146,
3666,-0.000610352,0.00772705,
3668,0.00671387,0.00777588,
3670,0,0.00776978,
3672,-0.0170898,0.00784302,
3674,-0.00610352,0.00787354,
3676,-0.00183105,0.00773926,
3678,-0.00671387,0.0078064,
3680,-0.00671387,0.00783691,
3682,-0.00427246,0.00780029,
3684,-0.00244141,0.00770264,
3686,-0.00854492,0.00769653,
3688,-0.00793457,0.00775757,
3690,0.00915527,0.00783691,
3692,0.0317383,0.00814819,
3694,0.00427246,0.00800171,
3696,-0.00427246,0.00800781,
3698,0.00244141,0.00797119,
3700,0.00732422,0.00788574,
3702,-0.00305176,0.00789795,
3704,-0.0128174,0.00791626,
3706,-0.00427246,0.00787964,
3708,-0.0128174,0.00790405,
3710,-0.0189209,0.00799561,
3712,0.00366211,0.00786133,
3714,0.00183105,0.00784912,
3716,0.010376,0.00789185,
3718,0.00305176,0.00778809,
3720,-0.0109863,0.00776978,
3722,0.012207,0.00776367,
3724,0.0158691,0.0078064,
3726,-0.00244141,0.0078125,
3728,-0.0256348,0.00803833,
3730,-0.00610352,0.00802612,
3732,0.000610352,0.0079834,
3734,0.00183105,0.00790405,
3736,-0.0109863,0.00800171,
3738,-0.0189209,0.00814819,
3740,0.0170898,0.00825195,
3742,0.00732422,0.0081665,
3744,-0.0268555,0.00838623,
3746,0.00793457,0.00841064,
3748,0.0012207,0.00830688,
3750,-0.00183105,0.00831299,
3752,-0.00793457,0.00828247,
3754,-0.00976563,0.00827637,
3756,-0.000610352,0.00823975,
3758,0.0189209,0.00842285,
3760,0.00549316,0.00838623,
3762,-0.0115967,0.00844116,
3764,-0.0109863,0.00843506,
3766,0.0158691,0.00847778,
3768,0.020752,0.00865479,
3770,-0.00610352,0.0086731,
3772,-0.010376,0.00870361,
3774,-0.012207,0.00866699,
3776,0,0.00864868,
3778,-0.00915527,0.00865479,
3780,-0.00549316,0.0086792,
3782,-0.00244141,0.00858765,
3784,-0.0109863,0.00858154,
3786,-0.00793457,0.00865479,
3788,0,0.00848999,
3790,-0.00976563,0.00838623,
3792,0.00244141,0.00838623,
3794,0.00427246,0.00831909,
3796,0.0109863,0.0083313,
3798,0.0012207,0.00820313,
3800,-0.0109863,0.00814819,
3802,0.00183105,0.00809937,
3804,0.00366211,0.00810547,
3806,-0.00671387,0.00806885,
3808,-0.00183105,0.00805664,
3810,-0.00305176,0.00807495,
3812,-0.00549316,0.00809937,
3814,-0.012207,0.00809937,
3816,-0.00183105,0.00809326,
3818,0.00854492,0.00812988,
3820,0.0177002,0.0081604,
3822,0.00366211,0.00808716,
3824,-0.0115967,0.00817261,
3826,0.0012207,0.00817261,
3828,-0.00183105,0.00812988,
3830,-0.0115967,0.00821533,
3832,0,0.00810547,
3834,-0.00671387,0.00800781,
3836,-0.00183105,0.00794067,
3838,-0.022583,0.0079834,
3840,-0.0128174,0.00786743,
3842,0.00976563,0.00778198,
3844,0.0115967,0.00788574,
3846,0.0146484,0.00792847,
3848,-0.00976563,0.00797119,
3850,-0.0219727,0.00805664,
3852,0.00976563,0.00811768,
3854,0.0146484,0.00819702,
3856,-0.00732422,0.00820923,
3858,-0.00854492,0.00828247,
3860,0.00610352,0.00828857,
3862,0.00183105,0.00827637,
3864,0.0134277,0.00839233,
3866,-0.00305176,0.00841675,
3868,-0.0274658,0.00862427,
3870,0.010376,0.00872803,
3872,-0.00549316,0.00861206,
3874,-0.0183105,0.00873413,
3876,-0.0170898,0.00888672,
3878,-0.0201416,0.009021,
3880,-0.00854492,0.00903931,
3882,-0.00549316,0.00905151,
3884,0.00366211,0.00906372,
3886,-0.00671387,0.00904541,
3888,-0.00488281,0.00901489,
3890,-0.00244141,0.00894775,
3892,0.00854492,0.00871582,
3894,-0.00976563,0.00877075,
3896,-0.00854492,0.00881348,
3898,-0.00732422,0.0088623,
3900,-0.00183105,0.00880737,
3902,-0.00305176,0.00880737,
3904,0,0.0086792,
3906,-0.00488281,0.0086853,
3908,0.0134277,0.00869141,
3910,-0.00244141,0.00852661,
3912,-0.0134277,0.00862427,
3914,0.000610352,0.00861206,
3916,-0.00976563,0.00860596,
3918,0.000610352,0.00858154,
3920,-0.0134277,0.00860596,
3922,-0.0152588,0.00863647,
3924,-0.010376,0.00858154,
3926,-0.00732422,0.00863037,
3928,0.00549316,0.00842896,
3930,0.00671387,0.00843506,
3932,0.0366211,0.00879517,
3934,0.0274658,0.00905151,
3936,-0.0201416,0.00914307,
3938,-0.0183105,0.00913696,
3940,0.0238037,0.0092041,
3942,-0.00427246,0.00917358,
3944,-0.022583,0.00913086,
3946,-0.0317383,0.0093689,
3948,-0.022583,0.00958252,
3950,-0.0213623,0.00977783,
3952,-0.0152588,0.00985107,
3954,-0.00671387,0.00982056,
3956,-0.00549316,0.00986938,
3958,0.00671387,0.00974731,
3960,0,0.00969238,
3962,-0.00732422,0.00964966,
3964,-0.00610352,0.00960083,
3966,0.00488281,0.00949097,
3968,0.00366211,0.00932007,
3970,-0.00854492,0.00934448,
3972,0,0.00924072,
3974,0.00244141,0.00914307,
3976,-0.00610352,0.0092041,
3978,-0.00549316,0.00916748,
3980,0.000610352,0.00911865,
3982,0.000610352,0.00910034,
3984,-0.00488281,0.00903931,
3986,-0.00183105,0.00897827,
3988,0.0012207,0.00899048,
3990,0.00549316,0.00894775,
3992,-0.0177002,0.00910034,
3994,0.0146484,0.0092041,
3996,0.00915527,0.00918579,
3998,-0.00610352,0.00923462,
4000,-0.00793457,0.0092041,
4002,-0.00549316,0.00924072,
4004,0.000610352,0.00921021,
4006,-0.00671387,0.00921021,
4008,-0.00671387,0.00925903,
4010,-0.00549316,0.00928345,
4012,0.00671387,0.00929565,
4014,0.00183105,0.00919189,
4016,0.00183105,0.00919189,
4018,0.0140381,0.00924683,
4020,0.00671387,0.00913696,
4022,-0.0146484,0.00924683,
4024,0.00366211,0.00916748,
4026,0.00427246,0.009198,
4028,-0.0152588,0.00933228,
4030,-0.00427246,0.00925903,
4032,0.00976563,0.00935669,
4034,-0.00427246,0.00933228,
4036,-0.0286865,0.00960083,
4038,0.00366211,0.00941162,
4040,0.0158691,0.00944214,
4042,0.0305176,0.00964966,
4044,-0.0177002,0.00971069,
4046,-0.020752,0.00977173,
4048,-0.010376,0.00977783,
4050,-0.00366211,0.00959473,
4052,-0.00366211,0.00953369,
4054,-0.0177002,0.00956421,
4056,-0.0183105,0.00967407,
4058,-0.0213623,0.00980225,
4060,-0.010376,0.00984497,
4062,-0.0140381,0.00996704,
4064,0,0.00983276,
4066,-0.0109863,0.00991211,
4068,0.00610352,0.00969849,
4070,-0.00183105,0.00961304,
4072,0.00976563,0.00965576,
4074,0.00427246,0.00951538,
4076,-0.00976563,0.00944214,
4078,0.00671387,0.00930786,
4080,0.00732422,0.00929565,
4082,-0.0012207,0.00925293,
4084,0.00244141,0.00924072,
4086,0.0183105,0.00935669,
4088,0.0115967,0.00942383,
4090,0.00244141,0.00942383,
4092,-0.0231934,0.00957031,
4094,0.0109863,0.00958252,
4096,0,0.00949707,
4098,-0.0146484,0.00957031,
4100,-0.012207,0.00967407,
4102,-0.00854492,0.009729,
4104,-0.00671387,0.00979614,
4106,-0.00427246,0.00979004,
4108,0.00915527,0.00974731,
4110,0.0164795,0.0098877,
4112,0.00305176,0.00978394,
4114,0.0140381,0.00991821,
4116,0.0146484,0.00996704,
4118,0.00610352,0.010022,
4120,-0.0158691,0.0100464,
4122,0.00976563,0.00999146,
4124,0.0012207,0.0098999,
4126,-0.0177002,0.0100037,
4128,-0.0378418,0.0103271,
4130,-0.0189209,0.0104492,
4132,-0.0012207,0.0100952,
4134,-0.0305176,0.0101257,
4136,-0.020752,0.0101318,
4138,-0.03479,0.0102966,
4140,-0.0201416,0.01026,
4142,0.00244141,0.0102417,
4144,-0.00976563,0.0101135,
4146,0.000610352,0.00980225,
4148,0.00549316,0.00963135,
4150,-0.00976563,0.00951538,
4152,0.0164795,0.00952759,
4154,0.00976563,0.00955811,
4156,0.00976563,0.00960083,
4158,0.0390625,0.00992432,
4160,-0.00183105,0.00994263,
4162,0.0213623,0.010083,
4164,0.0152588,0.0101746,
4166,0.020752,0.0103333,
4168,-0.0140381,0.010437,
4170,0.0158691,0.0105103,
4172,0.0128174,0.0106384,
4174,-0.0128174,0.0107422,
4176,-0.0115967,0.0107971,
4178,0.00915527,0.0108337,
4180,0.0219727,0.0110474,
4182,-0.0219727,0.011261,
4184,0.0219727,0.0114319,
4186,0.0115967,0.0115295,
4188,0.0213623,0.011731,
4190,0.0219727,0.0118958,
4192,-0.00183105,0.0117371,
4194,0.0134277,0.0117249,
4196,0.0201416,0.0118347,
4198,-0.0140381,0.0119141,
4200,-0.0140381,0.0119751,
4202,0.0115967,0.0120361,
4204,0.0256348,0.0122864,
4206,0.0311279,0.0125305,
4208,0.0341797,0.0128052,
4210,-0.0610352,0.0133606,
4212,0.00793457,0.0133728,
4214,0.0494385,0.0138489,
4216,-0.010376,0.0139343,
4218,-0.0244141,0.0140381,
4220,-0.020752,0.0141785,
4222,-0.0286865,0.0143188,
4224,-0.00915527,0.0143738,
4226,-0.0280762,0.0146118,
4228,0.0128174,0.0145874,
4230,0.0738525,0.0152832,
4232,0.0585938,0.0157715,
4234,0.0500488,0.0162292,
4236,0.0299072,0.0162415,
4238,0.0415039,0.0166199,
4240,0.0109863,0.016571,
4242,0.0317383,0.0165833,
4244,-0.0488281,0.0168945,
4246,-0.0408936,0.0170959,
4248,-0.0653076,0.0176453,
4250,-0.0585938,0.0181946,
4252,-0.0457764,0.0186157,
4254,-0.00915527,0.0185303,
4256,-0.0360107,0.0187073,
4258,-0.0231934,0.0187256,
4260,0.000610352,0.0186279,
4262,-0.0292969,0.0187805,
4264,-0.00366211,0.0188171,
4266,-0.00610352,0.0187683,
4268,-0.0256348,0.0189636,
4270,-0.0604248,0.0195496,
4272,-0.0177002,0.0196289,
4274,-0.0115967,0.0197021,
4276,-0.0183105,0.0197876,
4278,-0.0244141,0.0199646,
4280,-0.00366211,0.019928,
4282,-0.00549316,0.0199707,
4284,0,0.0199463,
4286,0.0177002,0.0199402,
4288,0.0280762,0.020105,
4290,-0.010376,0.0201843,
4292,0.00671387,0.0200195,
4294,0.0494385,0.0204041,
4296,0.0738525,0.0211426,
4298,0.0891113,0.0218872,
4300,0.0360107,0.0221252,
4302,-0.0457764,0.0224976,
4304,0.0494385,0.0229248,
4306,0.0354004,0.0232361,
4308,-0.0341797,0.0234863,
4310,-0.043335,0.0237549,
4312,-0.0506592,0.024231,
4314,-0.0390625,0.0244812,
4316,-0.0177002,0.0245117,
4318,-0.0183105,0.0246338,
4320,-0.0335693,0.0248108,
4322,-0.0244141,0.0249573,
4324,0.0469971,0.025415,
4326,0.0360107,0.0255981,
4328,-0.00427246,0.0252625,
4330,-0.0219727,0.025293,
4332,-0.0305176,0.0255859,
4334,-0.012207,0.0254028,
4336,0.00427246,0.025238,
4338,-0.00854492,0.0249756,
4340,-0.0250244,0.0250244,
4342,-0.0286865,0.0252869,
4344,-0.0158691,0.0253479,
4346,-0.0280762,0.0256226,
4348,-0.00183105,0.0255859,
4350,0.00976563,0.0255859,
4352,-0.00671387,0.0254883,
4354,-0.0012207,0.0254028,
4356,0.00183105,0.0253235,
4358,-0.0378418,0.0253113,
4360,0,0.025293,
4362,0.0219727,0.0252991,
4364,-0.0280762,0.0254272,
4366,-0.0268555,0.0254883,
4368,-0.0115967,0.0254639,
4370,-0.022583,0.025531,
4372,-0.00915527,0.0254944,
4374,0.0305176,0.0256714,
4376,-0.0445557,0.026001,
4378,-0.00183105,0.0259277,
4380,0.0109863,0.0258179,
4382,0.00427246,0.0256409,
4384,0.00976563,0.0255188,
4386,0.0268555,0.0256714,
4388,0.0195313,0.0256531,
4390,0.00183105,0.0254517,
4392,0.0335693,0.025769,
4394,0.0146484,0.0257813,
4396,-0.00183105,0.0255981,
4398,0.0244141,0.0257019,
4400,-0.00610352,0.0256226,
4402,-0.0402832,0.0259094,
4404,-0.0262451,0.0259155,
4406,-0.0177002,0.0257813,
4408,-0.0262451,0.0257019,
4410,-0.00976563,0.0251892,
4412,-0.00793457,0.0251892,
4414,0.00732422,0.0247681,
4416,-0.00366211,0.0247009,
4418,0.0189209,0.024646,
4420,-0.0311279,0.0247498,
4422,0.0250244,0.0247131,
4424,0.0183105,0.0248047,
4426,-0.00427246,0.0245667,
4428,0.0183105,0.0246216,
4430,-0.0177002,0.0240601,
4432,-0.0299072,0.0237732,
4434,-0.000610352,0.0232788,
4436,-0.012207,0.0231018,
4438,-0.00427246,0.0227295,
4440,0.020752,0.0228271,
4442,-0.0445557,0.0229553,
4444,-0.0219727,0.0226868,
4446,0.0115967,0.0223938,
4448,0.0488281,0.022229,
4450,-0.000610352,0.0216492,
4452,-0.045166,0.0216431,
4454,-0.0152588,0.0217041,
4456,0.00732422,0.0214172,
4458,0.00305176,0.0212158,
4460,-0.0305176,0.0215149,
4462,-0.0531006,0.0217529,
4464,-0.00732422,0.0217896,
4466,-0.00244141,0.0217529,
4468,0.0213623,0.0217102,
4470,-0.0146484,0.0212524,
4472,-0.0164795,0.0212402,
4474,0.00610352,0.0211853,
4476,0.0274658,0.0212769,
4478,0.0256348,0.0212891,
4480,0.00976563,0.0213501,
4482,-0.0189209,0.0214844,
4484,-0.00671387,0.0215515,
4486,0.012207,0.0214966,
4488,0.022583,0.0214417,
4490,-0.012207,0.02146,
4492,-0.00244141,0.0214172,
4494,0.0183105,0.021106,
4496,0,0.0203674,
4498,0.00183105,0.0194946,
4500,0.020752,0.019342,
4502,-0.00793457,0.0189636,
4504,-0.0195313,0.0186646,
4506,0.0164795,0.0184753,
4508,0.0128174,0.0182617,
4510,-0.0274658,0.018103,
4512,-0.022583,0.0178223,
4514,-0.0286865,0.0177185,
4516,-0.00488281,0.0175903,
4518,0.00610352,0.0174683,
4520,-0.00244141,0.017157,
4522,-0.0445557,0.0173584,
4524,-0.0183105,0.0170715,
4526,0.0134277,0.0168457,
4528,-0.0286865,0.0170898,
4530,-0.00854492,0.0169556,
4532,-0.022583,0.0168762,
4534,-0.0219727,0.0169739,
4536,0.00183105,0.0169495,
4538,0.0262451,0.0171265,
4540,0.0012207,0.0168884,
4542,-0.0152588,0.0167542,
4544,-0.00854492,0.0166809,
4546,0.0317383,0.0167175,
4548,0.00549316,0.0167542,
4550,0.0170898,0.0168274,
4552,-0.0158691,0.0169189,
4554,-0.0262451,0.0171692,
4556,-0.0201416,0.0173523,
4558,0.0128174,0.0171021,
4560,-0.0274658,0.0173767,
4562,0.0317383,0.0174744,
4564,-0.000610352,0.0171997,
4566,-0.0415039,0.0173462,
4568,0.00549316,0.0172852,
4570,0.010376,0.0171631,
4572,-0.012207,0.0171936,
4574,-0.00854492,0.0169739,
4576,-0.00183105,0.0165466,
4578,0.00610352,0.0165894,
4580,0.00427246,0.0165222,
4582,0.0134277,0.0166138,
4584,0.03479,0.016864,
4586,-0.0115967,0.0167114,
4588,0.0109863,0.016626,
4590,0.00366211,0.0166443,
4592,-0.00488281,0.0163574,
4594,-0.00854492,0.0162964,
4596,0.0012207,0.0162903,
4598,-0.0384521,0.0164307,
4600,-0.00732422,0.0164429,
4602,0.00549316,0.016095,
4604,-0.000610352,0.0158386,
4606,0.0146484,0.0158081,
4608,0.03479,0.0158936,
4610,-0.0250244,0.0160461,
4612,-0.00244141,0.0159912,
4614,-0.00732422,0.0159912,
4616,-0.012207,0.0160767,
4618,0.000610352,0.0158936,
4620,-0.0170898,0.0157532,
4622,-0.00305176,0.0155334,
4624,0.00366211,0.015387,
4626,0.00610352,0.0154053,
4628,-0.0274658,0.0154968,
4630,-0.0128174,0.015448,
4632,0.000610352,0.015155,
4634,0.0140381,0.0152893,
4636,-0.0115967,0.0152832,
4638,-0.0457764,0.0156982,
4640,-0.0286865,0.0157776,
4642,0.0140381,0.0154724,
4644,-0.0140381,0.0153931,
4646,0,0.0152771,
4648,-0.0274658,0.0150635,
4650,0.000610352,0.0150635,
4652,-0.00244141,0.0146362,
4654,-0.012207,0.0146057,
4656,-0.00488281,0.0145813,
4658,0.0134277,0.0146851,
4660,0,0.0143799,
4662,-0.0128174,0.0139771,
4664,0.00427246,0.0139465,
4666,0.0415039,0.0143372,
4668,0.012207,0.0142456,
4670,0.0231934,0.0143311,
4672,-0.00610352,0.0142273,
4674,-0.00427246,0.014209,
4676,0.0140381,0.0140747,
4678,0.0372314,0.0141907,
4680,0.0134277,0.0142273,
4682,-0.020752,0.0142456,
4684,-0.0482178,0.0146606,
4686,-0.010376,0.0146423,
4688,0.0372314,0.0147888,
4690,-0.0164795,0.0148315,
4692,0.0274658,0.0150818,
4694,-0.045166,0.0153503,
4696,-0.0384521,0.0157349,
4698,0.0280762,0.0159973,
4700,-0.0299072,0.0160889,
4702,0.0170898,0.0161804,
4704,-0.0140381,0.0161255,
4706,-0.0286865,0.0162476,
4708,-0.020752,0.0163269,
4710,0,0.0160522,
4712,-0.00549316,0.0158813,
4714,-0.00305176,0.015625,
4716,-0.00366211,0.0156128,
4718,0.0262451,0.0158142,
4720,-0.0115967,0.0159058,
4722,-0.00244141,0.0154846,
4724,0.0390625,0.0156921,
4726,0.00427246,0.0156006,
4728,-0.000610352,0.0153198,
4730,-0.0286865,0.0155212,
4732,-0.0146484,0.0154419,
4734,-0.0012207,0.0152344,
4736,-0.0146484,0.0153625,
4738,-0.0335693,0.0154358,
4740,-0.0213623,0.0156372,
4742,-0.0146484,0.0156311,
4744,0.00488281,0.0155945,
4746,-0.00244141,0.0153015,
4748,0.0128174,0.0153748,
4750,0.0360107,0.015564,
4752,0.0201416,0.0156067,
4754,-0.0128174,0.0154724,
4756,0.0158691,0.0154297,
4758,0.0622559,0.0159241,
4760,-0.00732422,0.0157227,
4762,-0.00915527,0.0154968,
4764,0.00976563,0.0155884,
4766,-0.0134277,0.0153076,
4768,-0.000610352,0.0152588,
4770,-0.0183105,0.0153381,
4772,-0.0152588,0.0153687,
4774,-0.000610352,0.0152893,
4776,-0.0262451,0.0155334,
4778,0.0012207,0.0154846,
4780,0.0164795,0.0156067,
4782,-0.00915527,0.015564,
4784,-0.0317383,0.0155334,
4786,0.0366211,0.0157837,
4788,-0.00244141,0.0156982,
4790,-0.0488281,0.0161499,
4792,0.00366211,0.0161377,
4794,0.00488281,0.0161011,
4796,-0.0213623,0.0163025,
4798,0.0012207,0.0159302,
4800,0.0402832,0.0162598,
4802,-0.043335,0.0166382,
4804,0.00732422,0.0167053,
4806,0.0231934,0.0167908,
4808,0.0262451,0.0167053,
4810,-0.0402832,0.0168579,
4812,-0.0256348,0.0170898,
4814,-0.0128174,0.0171448,
4816,0.0152588,0.0171753,
4818,-0.00793457,0.0172485,
4820,-0.020752,0.0172852,
4822,-0.00488281,0.0173035,
4824,0.0152588,0.0174194,
4826,-0.00366211,0.017395,
4828,-0.00915527,0.0172119,
4830,-0.00976563,0.0171814,
4832,0.0115967,0.0172913,
4834,-0.0140381,0.0172913,
4836,-0.0012207,0.0171875,
4838,-0.0299072,0.0170288,
4840,-0.0439453,0.0171814,
4842,0.00854492,0.0171265,
4844,-0.0213623,0.0171997,
4846,-0.0128174,0.0173279,
4848,0.0201416,0.0172546,
4850,0.012207,0.0173706,
4852,0.0140381,0.0174866,
4854,0.010376,0.0174683,
4856,-0.00854492,0.0175049,
4858,0.0366211,0.0177368,
4860,-0.0158691,0.0178955,
4862,0.000610352,0.0177734,
4864,-0.0213623,0.0179443,
4866,0.00183105,0.0175476,
4868,0.00488281,0.0174744,
4870,-0.0268555,0.017511,
4872,-0.00244141,0.0174744,
4874,0.00244141,0.0174561,
4876,0.00671387,0.0173828,
4878,0.00854492,0.0170959,
4880,-0.00732422,0.0170349,
4882,0,0.0168274,
4884,0.0250244,0.0165955,
4886,-0.00915527,0.0165833,
4888,-0.0183105,0.016394,
4890,0.00549316,0.0162842,
4892,0.000610352,0.0160156,
4894,-0.0128174,0.0156921,
4896,0.00488281,0.0153564,
4898,-0.0512695,0.0155884,
4900,-0.0280762,0.0155701,
4902,-0.00732422,0.0154724,
4904,-0.0128174,0.0154602,
4906,-0.00244141,0.0151978,
4908,0.00366211,0.0150269,
4910,-0.00488281,0.0150757,
4912,0.0280762,0.0153015,
4914,-0.0183105,0.0154541,
4916,0.00610352,0.0154785,
4918,0.010376,0.0153198,
4920,0.0256348,0.0154602,
4922,-0.00732422,0.015509,
4924,-0.00549316,0.0151733,
4926,-0.00183105,0.0151489,
4928,0.0177002,0.0153198,
4930,-0.0543213,0.0155762,
4932,-0.0012207,0.0154419,
4934,0.00610352,0.0154907,
4936,-0.0158691,0.0155029,
4938,-0.0177002,0.0153442,
4940,0.00854492,0.0152161,
4942,-0.0128174,0.0151978,
4944,0.00183105,0.0151672,
4946,0.0134277,0.0152771,
4948,0.0299072,0.015448,
4950,0.0170898,0.0152588,
4952,-0.0146484,0.0152039,
4954,-0.0262451,0.0153381,
4956,-0.012207,0.0153015,
4958,0.00915527,0.0147705,
4960,-0.022583,0.0149231,
4962,-0.0286865,0.0151184,
4964,-0.010376,0.0151245,
4966,-0.0140381,0.0151306,
4968,-0.00427246,0.0151672,
4970,-0.00244141,0.0150085,
4972,-0.00488281,0.0149048,
4974,0.00244141,0.0149231,
4976,0.0146484,0.0148071,
4978,0.00427246,0.0148376,
4980,-0.0134277,0.0148071,
4982,-0.0012207,0.0147278,
4984,0.0177002,0.0145874,
4986,-0.0195313,0.0144165,
4988,0.00610352,0.0144531,
4990,-0.0012207,0.0139771,
4992,-0.0219727,0.0141602,
4994,-0.0164795,0.0142761,
4996,0.0378418,0.0144409,
4998,-0.0457764,0.0148865,
5000,0.0170898,0.0146545,
5002,0.010376,0.014325,
5004,-0.0299072,0.0145508,
5006,0.00366211,0.0143555,
5008,-0.0335693,0.0144287,
5010,0.0286865,0.0143127,
5012,0.0317383,0.0143738,
5014,-0.0457764,0.0147034,
5016,-0.0335693,0.0148865,
5018,0.0317383,0.0151245,
5020,-0.0231934,0.0151489,
5022,-0.00610352,0.0151611,
5024,-0.010376,0.0151123,
5026,-0.00854492,0.0151611,
5028,-0.0140381,0.01521,
5030,-0.020752,0.0153198,
5032,-0.0201416,0.0154053,
5034,0.00305176,0.0152954,
5036,0.0177002,0.0154602,
5038,-0.0189209,0.0153503,
5040,-0.00915527,0.0150024,
5042,-0.00549316,0.0149719,
5044,0.03479,0.0151062,
5046,0.0244141,0.0152222,
5048,-0.0268555,0.0152893,
5050,-0.0012207,0.0151794,
5052,0.0146484,0.0151855,
5054,0.00244141,0.0151062,
5056,0.00305176,0.0150513,
5058,-0.00915527,0.0147766,
5060,-0.00854492,0.0147034,
5062,-0.0354004,0.0150513,
5064,-0.0140381,0.014978,
5066,-0.00305176,0.0149902,
5068,0.0189209,0.0151306,
5070,-0.0158691,0.0150208,
5072,-0.0238037,0.0152344,
5074,-0.012207,0.015332,
5076,0.00610352,0.0153259,
5078,-0.0134277,0.0153748,
5080,0.00427246,0.0153442,
5082,-0.00183105,0.0153625,
5084,0.0183105,0.0152954,
5086,0.00244141,0.0152283,
5088,0.0109863,0.015155,
5090,-0.0238037,0.0153381,
5092,0.00183105,0.0153503,
5094,0.0250244,0.0154724,
5096,0.00854492,0.015509,
5098,-0.0213623,0.01521,
5100,-0.0360107,0.0152893,
5102,-0.0280762,0.0154968,
5104,-0.010376,0.0154724,
5106,0.00305176,0.0154785,
5108,0.00915527,0.0155334,
5110,0.00183105,0.0155029,
5112,0.0286865,0.015509,
5114,-0.020752,0.0155334,
5116,-0.00183105,0.0154907,
5118,0.0183105,0.0155701,
5120,0.0109863,0.0154236,
5122,-0.00427246,0.0153931,
5124,-0.0427246,0.0157654,
5126,-0.0231934,0.015979,
5128,-0.0115967,0.015918,
5130,-0.0115967,0.0154907,
5132,-0.0219727,0.0156982,
5134,-0.020752,0.0158447,
5136,0.0238037,0.0159241,
5138,0.0372314,0.0161194,
5140,0.020752,0.0162415,
5142,-0.0268555,0.0163818,
5144,0.0109863,0.0164734,
5146,-0.00244141,0.0163635,
5148,0.00671387,0.0161316,
5150,-0.00915527,0.0160522,
5152,-0.0408936,0.0163147,
5154,-0.03479,0.0164001,
5156,0.00183105,0.0162964,
5158,0.0146484,0.0163513,
5160,-0.0128174,0.0162537,
5162,-0.0463867,0.0164307,
5164,0.0134277,0.0164612,
5166,0.00915527,0.0164124,
5168,-0.00244141,0.016394,
5170,-0.0115967,0.0164856,
5172,0.00549316,0.0164917,
5174,-0.012207,0.0165894,
5176,-0.0189209,0.0166321,
5178,-0.00854492,0.0166748,
5180,-0.00976563,0.0166382,
5182,0.010376,0.0167297,
5184,-0.00549316,0.0166077,
5186,-0.020752,0.0166199,
5188,0.012207,0.0166809,
5190,-0.00488281,0.0167175,
5192,0.00732422,0.016571,
5194,0.0134277,0.0165405,
5196,0.0317383,0.0164795,
5198,-0.0177002,0.0161987,
5200,-0.0134277,0.0161621,
5202,0.0360107,0.0164185,
5204,0.0384521,0.0165039,
5206,-0.00793457,0.0165466,
5208,-0.0305176,0.0165161,
5210,-0.0402832,0.0166321,
5212,0.0012207,0.0163269,
5214,0.00610352,0.0159302,
5216,-0.0146484,0.015741,
5218,-0.0201416,0.015625,
5220,-0.0262451,0.0156555,
5222,-0.00793457,0.0156738,
5224,0.00793457,0.0156494,
5226,0.0140381,0.0157043,
5228,0.0109863,0.0156738,
5230,0.0012207,0.0154785,
5232,0.0109863,0.015387,
5234,-0.0262451,0.0156189,
5236,-0.00732422,0.0155151,
5238,-0.00854492,0.0154114,
5240,-0.0250244,0.0155701,
5242,-0.00366211,0.0155518,
5244,-0.020752,0.0154114,
5246,-0.0317383,0.0154846,
5248,-0.00854492,0.0153015,
5250,-0.0183105,0.0154724,
5252,-0.00854492,0.0154114,
5254,-0.00793457,0.0154663,
5256,0.00854492,0.0155212,
5258,0.00793457,0.015509,
5260,-0.0012207,0.0154358,
5262,-0.020752,0.0152893,
5264,0.043335,0.0155823,
5266,0.0213623,0.0157654,
5268,0.00549316,0.0156311,
5270,-0.00488281,0.0155212,
5272,-0.0341797,0.015625,
5274,0.0140381,0.0156433,
5276,0.00488281,0.0156311,
5278,0.0164795,0.0156616,
5280,0.0219727,0.0158386,
5282,-0.0500488,0.0163208,
5284,-0.00610352,0.0161987,
5286,0.0183105,0.0163574,
5288,0.0177002,0.0164246,
5290,-0.00610352,0.0162476,
5292,-0.0280762,0.01651,
5294,-0.0213623,0.0164734,
5296,-0.0164795,0.0165527,
5298,-0.0164795,0.0165039,
5300,-0.00549316,0.0161987,
5302,-0.0012207,0.0159302,
5304,0.0012207,0.0158386,
5306,-0.00915527,0.0158997,
5308,-0.012207,0.0159302,
5310,-0.00366211,0.0159485,
5312,0.0213623,0.0158752,
5314,0.0195313,0.015863,
5316,-0.00183105,0.015863,
5318,0.00732422,0.0157532,
5320,-0.020752,0.0158508,
5322,0.00366211,0.0158447,
5324,-0.00671387,0.0154846,
5326,-0.0256348,0.015509,
5328,-0.0177002,0.0155701,
5330,-0.0268555,0.0157227,
5332,-0.0256348,0.0157593,
5334,-0.00488281,0.0156006,
5336,0.00732422,0.0154358,
5338,0.00366211,0.0151001,
5340,-0.00671387,0.0149597,
5342,-0.00671387,0.0147583,
5344,0.00427246,0.0146912,
5346,0.00305176,0.0146973,
5348,0.00244141,0.0146545,
5350,-0.0140381,0.0147034,
5352,-0.0177002,0.0144714,
5354,0.0115967,0.0142395,
5356,-0.00366211,0.0142578,
5358,-0.00305176,0.0141418,
5360,0.0152588,0.0141663,
5362,0.0134277,0.0138367,
5364,-0.0140381,0.0138428,
5366,-0.000610352,0.0137573,
5368,-0.012207,0.013855,
5370,0.0201416,0.0139404,
5372,0.0317383,0.0142029,
5374,-0.0372314,0.0144531,
5376,0.0012207,0.0142761,
5378,0.00793457,0.01427,
5380,-0.00366211,0.014209,
5382,-0.0408936,0.0145142,
5384,-0.0128174,0.0145874,
5386,-0.0274658,0.0146545,
5388,-0.0482178,0.0150146,
5390,-0.0366211,0.015332,
5392,-0.0189209,0.015448,
5394,-0.0250244,0.015564,
5396,-0.0146484,0.0153931,
5398,0.03479,0.015564,
5400,0.0305176,0.0157349,
5402,-0.00427246,0.0154175,
5404,0.0292969,0.0153259,
5406,-0.00671387,0.0153137,
5408,0.0177002,0.0151855,
5410,-0.00366211,0.0148193,
5412,-0.0201416,0.0150085,
5414,-0.00488281,0.0149963,
5416,-0.0299072,0.0151489,
5418,0.0012207,0.0149597,
5420,0.00854492,0.0147827,
5422,0.00610352,0.0147644,
5424,-0.0012207,0.0146973,
5426,-0.0146484,0.0147034,
5428,0.0439453,0.015033,
5430,-0.0128174,0.0151489,
5432,-0.0250244,0.0152893,
5434,-0.0213623,0.0152405,
5436,-0.00183105,0.0151855,
5438,-0.0164795,0.0152649,
5440,0,0.0150146,
5442,-0.0238037,0.0152161,
5444,-0.012207,0.0151306,
5446,0.000610352,0.0148193,
5448,-0.00793457,0.0148132,
5450,-0.0213623,0.0148437,
5452,0.000610352,0.0147644,
5454,-0.00366211,0.0147217,
5456,-0.0128174,0.0147644,
5458,0.022583,0.0149109,
5460,-0.0244141,0.0151428,
5462,0.00793457,0.0150146,
5464,0.0109863,0.0146912,
5466,-0.0109863,0.0145874,
5468,0.0323486,0.014856,
5470,0.00976563,0.0149048,
5472,-0.0384521,0.0149475,
5474,-0.010376,0.0149109,
5476,0.010376,0.0149658,
5478,0.0274658,0.0150757,
5480,0.00976563,0.0149536,
5482,-0.0140381,0.0145935,
5484,0.0384521,0.014917,
5486,-0.00793457,0.0148132,
5488,0.0128174,0.0147644,
5490,-0.0305176,0.0150085,
5492,-0.0115967,0.0148437,
5494,-0.020752,0.0148376,
5496,-0.00549316,0.0147278,
5498,0,0.014563,
5500,-0.0335693,0.0148437,
5502,-0.00854492,0.014917,
5504,-0.0109863,0.0150146,
5506,0.0256348,0.0151794,
5508,0.0158691,0.0152161,
5510,-0.0311279,0.0154907,
5512,-0.00549316,0.015332,
5514,-0.00976563,0.0152344,
5516,-0.00549316,0.015271,
5518,-0.00793457,0.0152771,
5520,-0.00244141,0.015094,
5522,-0.00183105,0.0150757,
5524,-0.0164795,0.0151733,
5526,0.00488281,0.0149658,
5528,0.00488281,0.0148376,
5530,0.00244141,0.0145935,
5532,0.0170898,0.0145081,
5534,-0.00610352,0.0145203,
5536,-0.032959,0.0147766,
5538,0.00915527,0.0148315,
5540,0.0469971,0.0152344,
5542,-0.00610352,0.0152283,
5544,-0.0189209,0.0153748,
5546,0.03479,0.0156921,
5548,-0.0170898,0.0158386,
5550,-0.0158691,0.0158569,
5552,-0.0012207,0.0156921,
5554,0,0.0155762,
5556,-0.0158691,0.0156982,
5558,-0.00488281,0.0157166,
5560,-0.0213623,0.0157776,
5562,-0.0219727,0.015863,
5564,-0.00427246,0.0157654,
5566,-0.00183105,0.0157776,
5568,0.0231934,0.0158875,
5570,-0.0231934,0.015918,
5572,-0.00976563,0.0156982,
5574,0.0115967,0.0154419,
5576,0.0152588,0.0155823,
5578,0.0152588,0.0156555,
5580,0.00549316,0.0156738,
5582,-0.0274658,0.0155396,
5584,0.0128174,0.0155396,
5586,-0.0164795,0.0154297,
5588,0.00305176,0.014978,
5590,-0.0231934,0.0148437,
5592,-0.0012207,0.0146667,
5594,-0.0164795,0.0145813,
5596,-0.0164795,0.0145996,
5598,0.0238037,0.0144897,
5600,0.00183105,0.0142029,
5602,-0.00610352,0.0142212,
5604,0.00793457,0.0140076,
5606,-0.00671387,0.0140076,
5608,0.00244141,0.013855,
5610,0.00732422,0.0138916,
5612,0.0177002,0.0138672,
5614,0.0140381,0.0139587,
5616,-0.03479,0.0140076,
5618,0.0170898,0.0141663,
5620,0.0183105,0.0142639,
5622,-0.0189209,0.0143921,
5624,-0.0170898,0.0145508,
5626,-0.0189209,0.0145935,
5628,-0.00427246,0.0141968,
5630,-0.022583,0.0142944,
5632,-0.0109863,0.0141541,
5634,-0.0158691,0.0140991,
5636,-0.00305176,0.0141113,
5638,0.0164795,0.0141113,
5640,0.00427246,0.0141541,
5642,-0.00366211,0.0139526,
5644,-0.020752,0.0140381,
5646,-0.000610352,0.0140381,
5648,0.0012207,0.0139709,
5650,0.00488281,0.0138062,
5652,-0.0268555,0.0140686,
5654,-0.00244141,0.0140564,
5656,0.0177002,0.0141052,
5658,0.0250244,0.0141296,
5660,-0.0177002,0.0140625,
5662,-0.00854492,0.0140686,
5664,0.0134277,0.014093,
5666,-0.00854492,0.0140686,
5668,-0.000610352,0.0137512,
5670,0.00244141,0.013678,
5672,-0.00793457,0.0133728,
5674,-0.0189209,0.0134583,
5676,0.00671387,0.0134216,
5678,-0.0335693,0.0134827,
5680,-0.00305176,0.0134155,
5682,-0.00183105,0.0132935,
5684,0.012207,0.013031,
5686,-0.00671387,0.0130188,
5688,-0.0500488,0.0133911,
5690,0.00244141,0.0131104,
5692,-0.000610352,0.0130005,
5694,-0.0012207,0.0128052,
5696,-0.012207,0.0128723,
5698,-0.0183105,0.0130554,
5700,-0.00671387,0.0127869,
5702,0.00305176,0.0127319,
5704,-0.0201416,0.0128235,
5706,-0.000610352,0.0125732,
5708,0.00854492,0.0125,
5710,-0.00793457,0.0122681,
5712,0.00488281,0.012262,
5714,0.00488281,0.0122131,
5716,0.00244141,0.0121826,
5718,0.0274658,0.0123779,
5720,-0.0170898,0.0125244,
5722,-0.0134277,0.0126404,
5724,0.0616455,0.013092,
5726,-0.00244141,0.0130676,
5728,-0.0311279,0.0133301,
5730,0.00976563,0.0134033,
5732,0.010376,0.0133362,
5734,0.0195313,0.0134705,
5736,0.0201416,0.0133423,
5738,-0.0421143,0.0136719,
5740,0.00732422,0.0132751,
5742,0.0201416,0.0134155,
5744,0.0158691,0.013385,
5746,-0.0219727,0.0132568,
5748,0.00305176,0.0131165,
5750,-0.00671387,0.0130249,
5752,-0.00183105,0.013031,
5754,-0.03479,0.0133789,
5756,0.0012207,0.0132324,
5758,0.00549316,0.0132385,
5760,-0.032959,0.0133545,
5762,-0.00366211,0.0131714,
5764,0.0012207,0.0131409,
5766,-0.0183105,0.0133057,
5768,-0.0262451,0.0133362,
5770,-0.0244141,0.0133484,
5772,-0.0012207,0.0132629,
5774,0.0012207,0.0131592,
5776,-0.00854492,0.013092,
5778,-0.0140381,0.0130798,
5780,-0.00427246,0.0130676,
5782,-0.00793457,0.0128723,
5784,0.00244141,0.0127686,
5786,-0.0158691,0.0127625,
5788,0,0.0127319,
5790,0.00732422,0.0125732,
5792,0.00488281,0.0126099,
5794,-0.0146484,0.0125916,
5796,-0.0140381,0.0125671,
5798,0.0012207,0.0123413,
5800,0.0195313,0.0125183,
5802,0.012207,0.0125793,
5804,-0.020752,0.0127075,
5806,0.0219727,0.0128601,
5808,0.00244141,0.0128601,
5810,-0.0115967,0.0129028,
5812,0.010376,0.0128296,
5814,-0.00549316,0.0127441,
5816,-0.0115967,0.0125122,
5818,-0.00427246,0.012384,
5820,-0.0115967,0.0123169,
5822,-0.00305176,0.0121582,
5824,-0.00671387,0.0120544,
5826,-0.00244141,0.0118896,
5828,-0.0195313,0.0120422,
5830,-0.00305176,0.0118469,
5832,0.00488281,0.0117859,
5834,0.0341797,0.011969,
5836,0.000610352,0.0119446,
5838,-0.0219727,0.0119995,
5840,-0.00976563,0.0120544,
5842,0.0109863,0.0121277,
5844,-0.00488281,0.011969,
5846,-0.0213623,0.0121765,
5848,-0.0152588,0.0123169,
5850,-0.0189209,0.0124573,
5852,-0.0109863,0.0122986,
5854,-0.00793457,0.0123535,
5856,-0.000610352,0.0121826,
5858,0.00671387,0.0119995,
5860,-0.00610352,0.0118835,
5862,0.00793457,0.0118774,
5864,0.00183105,0.0117615,
5866,-0.010376,0.0117798,
5868,0.010376,0.0118774,
5870,0.0128174,0.0119812,
5872,-0.0158691,0.0120605,
5874,0.00549316,0.0119263,
5876,-0.000610352,0.0118652,
5878,0.00427246,0.0115723,
5880,0.00976563,0.0116394,
5882,0.010376,0.0117249,
5884,-0.0109863,0.0117126,
5886,-0.012207,0.0117676,
5888,0.0311279,0.0115784,
5890,0.0109863,0.0116638,
5892,-0.032959,0.0119873,
5894,0,0.0119751,
5896,-0.00427246,0.0118958,
5898,-0.00366211,0.0117493,
5900,0.000610352,0.0116882,
5902,-0.0140381,0.0117981,
5904,-0.0268555,0.0118652,
5906,-0.00732422,0.0119324,
5908,0.00244141,0.0118713,
5910,-0.00488281,0.0118408,
5912,-0.00305176,0.0118225,
5914,0.00183105,0.011792,
5916,-0.0115967,0.0118835,
5918,0.0183105,0.011792,
5920,0.0134277,0.0117554,
5922,0,0.0116211,
5924,-0.010376,0.0111084,
5926,0.0012207,0.0110962,
5928,0.022583,0.0110107,
5930,0.00488281,0.0109619,
5932,-0.0115967,0.0109741,
5934,-0.0158691,0.0109375,
5936,-0.012207,0.0108582,
5938,-0.00915527,0.0105286,
5940,0.00183105,0.0104736,
5942,-0.0158691,0.0104309,
5944,-0.00732422,0.0103455,
5946,-0.0256348,0.0103821,
5948,0.00183105,0.0103699,
5950,0.00610352,0.0103638,
5952,0.012207,0.0104675,
5954,0.00732422,0.0101929,
5956,-0.00488281,0.0102295,
5958,-0.00671387,0.0102417,
5960,-0.00610352,0.00997314,
5962,0.00244141,0.00996094,
5964,0.00732422,0.010022,
5966,-0.00549316,0.0098938,
5968,-0.0195313,0.00982666,
5970,-0.0158691,0.00974121,
5972,0.0012207,0.00974121,
5974,0.010376,0.00983276,
5976,-0.00427246,0.00979004,
5978,-0.0109863,0.00975952,
5980,-0.00976563,0.00981445,
5982,-0.0274658,0.0100098,
5984,-0.00488281,0.0100342,
5986,0.00244141,0.0098999,
5988,-0.00732422,0.00997314,
5990,-0.0164795,0.0100647,
5992,0.00183105,0.0100342,
5994,-0.0158691,0.0100464,
5996,-0.010376,0.0100098,
5998,0.00305176,0.0100281,
6000,0.00915527,0.00992432,
6002,0.0146484,0.00994873,
6004,-0.00488281,0.00979004,
6006,-0.0250244,0.00982056,
6008,-0.0164795,0.00996094,
6010,-0.012207,0.00996704,
6012,-0.00732422,0.00993652,
6014,-0.000610352,0.0098877,
6016,-0.0164795,0.00993652,
6018,-0.0183105,0.0100769,
6020,-0.0286865,0.0102478,
6022,0.00976563,0.0103149,
6024,0.022583,0.0104736,
6026,-0.0164795,0.010614,
6028,-0.00854492,0.0105042,
6030,-0.00549316,0.0105286,
6032,0.00793457,0.0105591,
6034,-0.010376,0.010321,
6036,-0.00488281,0.0103638,
6038,-0.00793457,0.0102234,
6040,-0.000610352,0.0101318,
6042,-0.00793457,0.0101013,
6044,-0.00976563,0.0101501,
6046,-0.0158691,0.0100952,
6048,-0.00183105,0.00996094,
6050,0.00366211,0.00980835,
6052,-0.00183105,0.0097168,
6054,-0.0396729,0.0100342,
6056,-0.0244141,0.0102722,
6058,0.010376,0.0103088,
6060,0.00549316,0.0103027,
6062,0.0115967,0.0103394,
6064,-0.00610352,0.0103821,
6066,-0.0317383,0.0105957,
6068,0.00183105,0.0105103,
6070,0.00305176,0.0104126,
6072,-0.0128174,0.0103821,
6074,-0.0195313,0.0105225,
6076,-0.0256348,0.0107727,
6078,-0.0219727,0.0109497,
6080,-0.0152588,0.0110046,
6082,-0.00793457,0.0109802,
6084,-0.00610352,0.0109314,
6086,0.00305176,0.0108398,
6088,0.0213623,0.0107422,
6090,0.00366211,0.0106689,
6092,0.00915527,0.0104309,
6094,0.0189209,0.0106201,
6096,0.0164795,0.0107422,
6098,-0.0152588,0.0108582,
6100,-0.0140381,0.0109924,
6102,0.0134277,0.0109863,
6104,0.0183105,0.0109009,
6106,-0.0366211,0.0111938,
6108,-0.0335693,0.0115051,
6110,-0.00244141,0.0114807,
6112,-0.0170898,0.0116211,
6114,0.010376,0.0117065,
6116,-0.0183105,0.0117737,
6118,-0.00305176,0.0116211,
6120,-0.0109863,0.0115967,
6122,-0.0189209,0.0117859,
6124,0,0.0116821,
6126,0.00671387,0.0117371,
6128,0.00854492,0.0115967,
6130,-0.012207,0.0116699,
6132,-0.0518799,0.0120728,
6134,0.00366211,0.0119507,
6136,0.00366211,0.0118652,
6138,-0.00549316,0.0118286,
6140,-0.0134277,0.0119446,
6142,-0.000610352,0.011792,
6144,0.0305176,0.0120239,
6146,-0.0109863,0.0118774,
6148,0.0109863,0.011969,
6150,0.0415039,0.012323,
6152,0.0213623,0.0124146,
6154,-0.00427246,0.012384,
6156,-0.0402832,0.012738,
6158,0.0109863,0.0127808,
6160,-0.00305176,0.0127502,
6162,-0.0286865,0.0130127,
6164,-0.0408936,0.0133484,
6166,-0.0189209,0.0134827,
6168,-0.0140381,0.0134277,
6170,-0.00427246,0.0133118,
6172,-0.00793457,0.0133789,
6174,-0.00671387,0.0133423,
6176,-0.00183105,0.0133179,
6178,0.00549316,0.0132629,
6180,0.0115967,0.0132813,
6182,-0.00366211,0.0130432,
6184,-0.00732422,0.0130676,
6186,-0.00976563,0.0131409,
6188,-0.000610352,0.0130737,
6190,-0.0012207,0.0129211,
6192,-0.000610352,0.0129089,
6194,-0.0012207,0.0127625,
6196,-0.0109863,0.0127686,
6198,0.0158691,0.0128967,
6200,-0.0134277,0.0129395,
6202,0,0.012793,
6204,0.0134277,0.0128784,
6206,-0.00976563,0.0127258,
6208,0.0219727,0.0127808,
6210,-0.00427246,0.0127014,
6212,-0.0189209,0.0128174,
6214,0.00854492,0.0128967,
6216,-0.0195313,0.0129272,
6218,0.00610352,0.0128052,
6220,-0.00366211,0.0125549,
6222,-0.0115967,0.0125732,
6224,-0.020752,0.0125549,
6226,0.00183105,0.0124084,
6228,-0.00549316,0.0123779,
6230,0.00793457,0.0124023,
6232,0.0189209,0.0125122,
6234,-0.00610352,0.0124695,
6236,-0.010376,0.0125244,
6238,-0.0158691,0.0126038,
6240,0.00305176,0.0126282,
6242,0.00610352,0.0126099,
6244,-0.0183105,0.0126953,
6246,-0.0341797,0.0128784,
6248,-0.0274658,0.0131348,
6250,-0.0146484,0.0132446,
6252,-0.00854492,0.0133118,
6254,-0.0115967,0.013031,
6256,-0.012207,0.0129089,
6258,-0.00305176,0.0128357,
6260,0.0109863,0.0128906,
6262,0.00549316,0.0128296,
6264,-0.0109863,0.0128784,
6266,0.00488281,0.0126099,
6268,0.0311279,0.0129028,
6270,-0.012207,0.0129944,
6272,-0.0250244,0.0131165,
6274,0.00427246,0.0129639,
6276,-0.0115967,0.0128235,
6278,-0.00915527,0.0126953,
6280,0,0.0125427,
6282,-0.00915527,0.0125549,
6284,-0.0201416,0.0126953,
6286,0.0292969,0.0129578,
6288,0.0164795,0.0129089,
6290,-0.00549316,0.0129272,
6292,-0.00732422,0.0129089,
6294,-0.0134277,0.012854,
6296,-0.00427246,0.0127319,
6298,-0.000610352,0.0125854,
6300,0.00427246,0.0124878,
6302,-0.0189209,0.0125427,
6304,-0.0274658,0.0126343,
6306,-0.0164795,0.0124329,
6308,0.012207,0.0122192,
6310,0,0.0121948,
6312,-0.00183105,0.0120422,
6314,0.0146484,0.012085,
6316,-0.0292969,0.0121948,
6318,-0.00244141,0.0121887,
6320,0.000610352,0.012085,
6322,-0.00366211,0.0119324,
6324,0,0.0119324,
6326,-0.0128174,0.0119934,
6328,-0.00976563,0.0120056,
6330,-0.0115967,0.0119995,
6332,-0.022583,0.0117065,
6334,-0.00183105,0.0116882,
6336,0.00732422,0.0117249,
6338,0.00366211,0.0117065,
6340,0.00732422,0.0116455,
6342,0.00427246,0.0116821,
6344,-0.0183105,0.0115601,
6346,0.0299072,0.0117493,
6348,0.0280762,0.0119202,
6350,-0.020752,0.0117126,
6352,0.00732422,0.0115723,
6354,-0.00793457,0.0116089,
6356,-0.00549316,0.011261,
6358,-0.00854492,0.0112366,
6360,-0.00671387,0.0112732,
6362,-0.00915527,0.0110779,
6364,-0.0231934,0.0109009,
6366,-0.00793457,0.010791,
6368,0.0201416,0.0108521,
6370,-0.00915527,0.0109009,
6372,0.00854492,0.010907,
6374,-0.00549316,0.0108948,
6376,-0.00183105,0.0108948,
6378,0.0152588,0.0109924,
6380,0.0286865,0.0111633,
6382,-0.0201416,0.0113281,
6384,-0.0305176,0.0115601,
6386,-0.00854492,0.0115479,
6388,0.00427246,0.0115845,
6390,-0.0152588,0.0117249,
6392,-0.0323486,0.0120422,
6394,-0.0170898,0.0122009,
6396,0.00305176,0.0121216,
6398,-0.0262451,0.0122253,
6400,-0.00183105,0.0121094,
6402,-0.000610352,0.0121155,
6404,0.00305176,0.0120117,
6406,0,0.0119141,
6408,0.000610352,0.0117004,
6410,-0.00305176,0.0116882,
6412,0.012207,0.0116211,
6414,0.0128174,0.0116638,
6416,0.00183105,0.0114868,
6418,0.00366211,0.0114624,
6420,0.00366211,0.0114624,
6422,-0.0115967,0.0114624,
6424,-0.0146484,0.0114014,
6426,-0.00427246,0.0114258,
6428,-0.00732422,0.0114441,
6430,-0.0286865,0.0116516,
6432,-0.0177002,0.0116394,
6434,-0.0134277,0.0117126,
6436,-0.00305176,0.0116394,
6438,-0.0140381,0.0116211,
6440,0.0146484,0.0117371,
6442,-0.00427246,0.0117188,
6444,-0.00549316,0.0115906,
6446,0.00549316,0.0113037,
6448,-0.00793457,0.0111084,
6450,0.00366211,0.0109985,
6452,-0.0170898,0.011084,
6454,-0.00854492,0.0110535,
6456,-0.0219727,0.0111511,
6458,-0.00854492,0.0112061,
6460,-0.00732422,0.0111694,
6462,-0.0140381,0.0112549,
6464,-0.00549316,0.0112,
6466,0.00854492,0.0112366,
6468,0.0415039,0.0113403,
6470,-0.00366211,0.0112549,
6472,-0.0305176,0.0113098,
6474,0.0341797,0.0116089,
6476,0.0109863,0.0116028,
6478,-0.0146484,0.0116577,
6480,-0.00793457,0.0117371,
6482,-0.0250244,0.0118958,
6484,0.0323486,0.0120178,
6486,0.0012207,0.0117371,
6488,-0.0109863,0.0116821,
6490,-0.00549316,0.0116821,
6492,0.0109863,0.0117188,
6494,0.00488281,0.0116333,
6496,-0.0231934,0.0118225,
6498,-0.00183105,0.0118347,
6500,-0.0231934,0.0120239,
6502,-0.0305176,0.0121399,
6504,-0.0195313,0.0120605,
6506,-0.00183105,0.0119141,
6508,-0.0012207,0.0118042,
6510,-0.0219727,0.0120239,
6512,0.00366211,0.0120422,
6514,0.012207,0.0120178,
6516,-0.0219727,0.0119446,
6518,0.00183105,0.0119385,
6520,0.000610352,0.0119385,
6522,0.00671387,0.011969,
6524,-0.00915527,0.0120605,
6526,-0.00488281,0.0119812,
6528,0.0109863,0.0119934,
6530,-0.0201416,0.0120789,
6532,-0.00366211,0.0118896,
6534,-0.00793457,0.0119507,
6536,0.00366211,0.0119141,
6538,-0.00244141,0.0119019,
6540,0.0170898,0.0119995,
6542,-0.0115967,0.0120728,
6544,-0.0305176,0.0121948,
6546,0.00305176,0.0119263,
6548,0.00366211,0.0116821,
6550,0.000610352,0.0114807,
6552,-0.00732422,0.0114807,
6554,-0.012207,0.0115234,
6556,0.0115967,0.0115845,
6558,-0.0231934,0.011731,
6560,0.00793457,0.0117432,
6562,0.00854492,0.0117371,
6564,-0.00183105,0.0115234,
6566,-0.00976563,0.0115417,
6568,0.00244141,0.0113647,
6570,-0.0128174,0.0114014,
6572,-0.0128174,0.0114441,
6574,-0.00549316,0.0114441,
6576,-0.0012207,0.011438,
6578,-0.0238037,0.0115234,
6580,0.0244141,0.0114807,
6582,0.00793457,0.0113586,
6584,-0.0292969,0.0113464,
6586,0.0109863,0.0113708,
6588,0.0109863,0.011438,
6590,0.0012207,0.0112976,
6592,-0.0335693,0.0113098,
6594,-0.00183105,0.0111572,
6596,0.00793457,0.0112061,
6598,-0.0134277,0.0110779,
6600,0.0012207,0.0110718,
6602,-0.00915527,0.0111572,
6604,0.00671387,0.0111938,
6606,-0.0115967,0.0113098,
6608,0.0183105,0.0114868,
6610,-0.020752,0.0116638,
6612,0.00183105,0.0115601,
6614,-0.012207,0.011554,
6616,-0.00854492,0.0116211,
6618,0.00305176,0.011615,
6620,-0.0158691,0.0117371,
6622,-0.00976563,0.0117188,
6624,-0.012207,0.0116943,
6626,0.0152588,0.0118042,
6628,0.00305176,0.0117615,
6630,0.00549316,0.0115295,
6632,-0.00366211,0.0113892,
6634,-0.0201416,0.0114563,
6636,-0.00366211,0.0114624,
6638,0.00610352,0.0113831,
6640,-0.0213623,0.0114502,
6642,-0.0262451,0.0116699,
6644,-0.0146484,0.0117615,
6646,-0.00976563,0.0118042,
6648,-0.00854492,0.0118103,
6650,-0.00671387,0.0118408,
6652,0.00183105,0.0116882,
6654,-0.010376,0.0117065,
6656,-0.000610352,0.0114929,
6658,0.0128174,0.0115356,
6660,0.000610352,0.0114685,
6662,-0.0152588,0.0114807,
6664,0.0170898,0.0115967,
6666,0.022583,0.0117371,
6668,-0.00732422,0.0113953,
6670,-0.0439453,0.0117981,
6672,0.0280762,0.0117737,
6674,0.00915527,0.0115234,
6676,-0.0250244,0.0116638,
6678,-0.0299072,0.0118164,
6680,-0.00610352,0.0117981,
6682,0.00610352,0.0116089,
6684,-0.022583,0.0115112,
6686,-0.0134277,0.0116333,
6688,0.00305176,0.011554,
6690,0.00976563,0.0115967,
6692,-0.00366211,0.0115234,
6694,-0.00732422,0.0115479,
6696,-0.0189209,0.0115051,
6698,-0.00610352,0.0115479,
6700,-0.00305176,0.0113464,
6702,-0.00488281,0.0110901,
6704,-0.0109863,0.0110046,
6706,-0.0134277,0.0111206,
6708,-0.00366211,0.011145,
6710,0.00793457,0.0110046,
6712,0.0183105,0.0111511,
6714,0.0256348,0.0112854,
6716,-0.00305176,0.0110962,
6718,-0.00305176,0.0111084,
6720,0.00915527,0.0111938,
6722,0.0134277,0.011261,
6724,-0.0152588,0.011322,
6726,-0.00488281,0.011322,
6728,-0.0012207,0.0112244,
6730,-0.0128174,0.0111511,
6732,-0.0311279,0.0114258,
6734,-0.00610352,0.0114075,
6736,0.00427246,0.0114136,
6738,-0.0012207,0.0114014,
6740,-0.0115967,0.0113464,
6742,-0.022583,0.0114563,
6744,-0.0274658,0.0114258,
6746,-0.010376,0.011499,
6748,-0.000610352,0.0114685,
6750,-0.00244141,0.0114868,
6752,0,0.0114136,
6754,-0.00732422,0.0113647,
6756,-0.0201416,0.0114502,
6758,0.00854492,0.0113037,
6760,0.0158691,0.0113831,
6762,-0.00427246,0.0113403,
6764,-0.00793457,0.0114014,
6766,-0.0177002,0.0114807,
6768,-0.00427246,0.011499,
6770,0.0158691,0.0115295,
6772,0.00976563,0.011499,
6774,-0.0396729,0.0118408,
6776,-0.00915527,0.0119202,
6778,0.0164795,0.0118469,
6780,-0.000610352,0.0116089,
6782,-0.0140381,0.0116699,
6784,-0.000610352,0.0113831,
6786,-0.00549316,0.0113281,
6788,0.00732422,0.0112915,
6790,0.00976563,0.011377,
6792,-0.0396729,0.011438,
6794,0.0146484,0.0115662,
6796,-0.00366211,0.0115234,
6798,-0.000610352,0.0113953,
6800,0.00244141,0.0114075,
6802,-0.03479,0.0116638,
6804,-0.00732422,0.0116699,
6806,0.00854492,0.0116394,
6808,-0.00793457,0.0115356,
6810,-0.00732422,0.0114014,
6812,-0.00427246,0.0114258,
6814,-0.00183105,0.011322,
6816,-0.0152588,0.0113892,
6818,0.0311279,0.0116699,
6820,0.0140381,0.0116516,
6822,-0.0189209,0.0117432,
6824,-0.00183105,0.0116394,
6826,-0.0134277,0.0116211,
6828,0.00488281,0.0116394,
6830,-0.0128174,0.0117126,
6832,-0.0170898,0.0118469,
6834,-0.0256348,0.0119019,
6836,-0.0238037,0.0121033,
6838,-0.00549316,0.0120972,
6840,-0.00427246,0.0119263,
6842,-0.0189209,0.011853,
6844,0.012207,0.0118286,
6846,-0.0164795,0.0118958,
6848,-0.0115967,0.0119263,
6850,0.00427246,0.0119019,
6852,-0.0146484,0.01203,
6854,-0.000610352,0.0119324,
6856,0.00305176,0.0119568,
6858,0.000610352,0.0118347,
6860,-0.0280762,0.0121094,
6862,0.00549316,0.0120117,
6864,0.0152588,0.0119934,
6866,-0.0140381,0.011908,
6868,0.000610352,0.0118408,
6870,0.0134277,0.0115356,
6872,-0.0274658,0.0115295,
6874,0.010376,0.0115417,
6876,-0.0152588,0.0114441,
6878,-0.00793457,0.0112244,
6880,-0.0115967,0.0112793,
6882,-0.0170898,0.0113892,
6884,-0.0012207,0.0111755,
6886,-0.00915527,0.0111328,
6888,-0.0183105,0.0112854,
6890,0.00671387,0.0112549,
6892,0.00793457,0.0112976,
6894,-0.00244141,0.0112488,
6896,-0.0140381,0.0112,
6898,0.0201416,0.0113403,
6900,-0.010376,0.0114136,
6902,-0.010376,0.0114685,
6904,0.000610352,0.0113647,
6906,-0.00549316,0.0112854,
6908,0.00732422,0.011322,
6910,0.00854492,0.0113281,
6912,0.0109863,0.0112549,
6914,0.00732422,0.0110718,
6916,-0.0128174,0.0111694,
6918,0.00915527,0.0112305,
6920,0.0152588,0.0112915,
6922,-0.0152588,0.0113098,
6924,-0.00427246,0.0112,
6926,-0.0244141,0.0113953,
6928,-0.0140381,0.0115234,
6930,-0.0201416,0.0115967,
6932,-0.0170898,0.0114563,
6934,-0.00671387,0.0114624,
6936,-0.00976563,0.0115173,
6938,-0.0170898,0.011676,
6940,-0.00732422,0.0116333,
6942,-0.00610352,0.0114685,
6944,-0.00244141,0.0112183,
6946,-0.0012207,0.0111267,
6948,0,0.0111206,
6950,0,0.0110962,
6952,0.00305176,0.0111267,
6954,0.00549316,0.0111084,
6956,-0.00183105,0.0109253,
6958,0.00183105,0.0108582,
6960,0.00549316,0.0107544,
6962,-0.0115967,0.0108276,
6964,0.0134277,0.0108826,
6966,0.00366211,0.0107422,
6968,-0.00244141,0.0107239,
6970,-0.0152588,0.0107178,
6972,-0.00244141,0.0106445,
6974,0.0134277,0.0103821,
6976,-0.00244141,0.0103149,
6978,-0.00183105,0.0101685,
6980,-0.00610352,0.0102234,
6982,-0.0183105,0.0102661,
6984,0.00366211,0.0102966,
6986,0.0152588,0.0103943,
6988,-0.0012207,0.0103333,
6990,-0.0366211,0.0106018,
6992,-0.00793457,0.0102844,
6994,0.00427246,0.0101807,
6996,0.00183105,0.0101624,
6998,-0.00366211,0.0101929,
7000,-0.00793457,0.0102478,
7002,0.00549316,0.00995483,
7004,0.00976563,0.00997925,
7006,-0.00244141,0.00991821,
7008,-0.00976563,0.00993652,
7010,-0.00549316,0.00991821,
7012,0,0.00987549,
7014,0.0115967,0.00997314,
7016,0.00488281,0.00986938,
7018,-0.0219727,0.00977783,
7020,-0.0170898,0.00980835,
7022,-0.00244141,0.00964355,
7024,0.022583,0.00985107,
7026,-0.0158691,0.00987549,
7028,-0.0305176,0.0101318,
7030,-0.0146484,0.0101501,
7032,-0.0128174,0.0101074,
7034,-0.00183105,0.00986938,
7036,0.00976563,0.009729,
7038,-0.0164795,0.00983887,
7040,-0.00305176,0.00982666,
7042,0.00183105,0.00965576,
7044,0.00549316,0.00958862,
7046,0.00854492,0.00950928,
7048,-0.00732422,0.00946655,
7050,-0.0012207,0.00943604,
7052,0.00244141,0.00931396,
7054,-0.00671387,0.009375,
7056,-0.0280762,0.00962524,
7058,0.00671387,0.00968628,
7060,-0.00976563,0.00950317,
7062,-0.0146484,0.00959473,
7064,-0.00427246,0.00948486,
7066,-0.00732422,0.00941772,
7068,0.00427246,0.00945435,
7070,0.00427246,0.00936279,
7072,-0.000610352,0.00909424,
7074,0.00244141,0.00901489,
7076,0.0164795,0.0090271,
7078,0.010376,0.00905151,
7080,0.0140381,0.00907593,
7082,-0.0305176,0.00921021,
7084,0.0177002,0.009375,
7086,-0.00427246,0.00932617,
7088,-0.010376,0.00924683,
7090,0.0012207,0.00919189,
7092,-0.0128174,0.00924072,
7094,-0.0244141,0.00946045,
7096,-0.00366211,0.00935669,
7098,0.00183105,0.00917358,
7100,-0.0146484,0.00921631,
7102,0.0109863,0.00922241,
7104,-0.0140381,0.00935669,
7106,0.0341797,0.00964355,
7108,0.00549316,0.00962524,
7110,-0.0189209,0.009729,
7112,-0.000610352,0.00962524,
7114,0.0012207,0.00956421,
7116,0.00427246,0.00947876,
7118,-0.00976563,0.00948486,
7120,-0.0292969,0.00962524,
7122,-0.0317383,0.00979004,
7124,-0.00183105,0.00976563,
7126,0.00488281,0.00957031,
7128,-0.0152588,0.00958252,
7130,-0.0195313,0.00957642,
7132,-0.00610352,0.00946655,
7134,0.00488281,0.00944824,
7136,-0.00305176,0.0093811,
7138,-0.012207,0.00933228,
7140,-0.00366211,0.00929565,
7142,-0.00488281,0.00928345,
7144,-0.00610352,0.00932007,
7146,0.00610352,0.0093689,
7148,0.00976563,0.00946655,
7150,-0.0262451,0.009729,
7152,0.010376,0.00980225,
7154,0.0146484,0.0098938,
7156,-0.0195313,0.0100708,
7158,0.0140381,0.0101929,
7160,-0.0140381,0.0102783,
7162,-0.0177002,0.0103394,
7164,0.000610352,0.0102112,
7166,0.00549316,0.0102295,
7168,-0.0128174,0.0103333,
7170,0,0.0101807,
7172,-0.0177002,0.0103333,
7174,-0.00305176,0.0102295,
7176,0.00732422,0.0102783,
7178,0.0195313,0.0104553,
7180,-0.0158691,0.010553,
7182,-0.0256348,0.0106262,
7184,0.0213623,0.0108032,
7186,0.0323486,0.0109741,
7188,-0.0134277,0.0110962,
7190,-0.0146484,0.0108765,
7192,-0.0128174,0.0109253,
7194,0.00244141,0.010907,
7196,0.00244141,0.0109131,
7198,-0.00671387,0.0109436,
7200,-0.0140381,0.0110046,
7202,-0.00915527,0.0110413,
7204,-0.0183105,0.0111267,
7206,-0.0183105,0.0112854,
7208,0.00549316,0.0112427,
7210,0.00854492,0.0112732,
7212,-0.0213623,0.0114868,
7214,-0.0140381,0.0115112,
7216,0.000610352,0.0114685,
7218,0.0012207,0.011261,
7220,-0.012207,0.0112122,
7222,-0.00305176,0.0112183,
7224,0.010376,0.0110962,
7226,-0.00427246,0.0109802,
7228,-0.000610352,0.0106812,
7230,0.00793457,0.010614,
7232,-0.00610352,0.0105469,
7234,-0.0177002,0.0107056,
7236,-0.00366211,0.0106445,
7238,-0.00610352,0.0105408,
7240,0.010376,0.010614,
7242,0.00305176,0.0106262,
7244,-0.0238037,0.0108093,
7246,-0.0115967,0.0108398,
7248,-0.00976563,0.0108643,
7250,-0.00610352,0.0109131,
7252,-0.00366211,0.0109253,
7254,-0.012207,0.0109802,
7256,-0.00488281,0.0107483,
7258,0.0012207,0.0106934,
7260,0.0012207,0.0106079,
7262,-0.0256348,0.0107178,
7264,0.0146484,0.0108215,
7266,0,0.0107483,
7268,-0.00244141,0.01073,
7270,0.00244141,0.0107117,
7272,0.00488281,0.0107544,
7274,-0.00610352,0.010791,
7276,-0.00549316,0.0106812,
7278,-0.00305176,0.0106079,
7280,0.0134277,0.0106018,
7282,0.0170898,0.0104675,
7284,-0.0134277,0.0104248,
7286,-0.00488281,0.0104309,
7288,-0.0115967,0.0104431,
7290,0.012207,0.010553,
7292,-0.00854492,0.0105103,
7294,0.0012207,0.0102783,
7296,-0.00183105,0.01026,
7298,0.0140381,0.0103821,
7300,0.000610352,0.0102417,
7302,-0.0213623,0.0103455,
7304,0.0195313,0.0104004,
7306,0.0177002,0.0102356,
7308,0.00427246,0.0102234,
7310,0.00244141,0.0100586,
7312,-0.0299072,0.0103516,
7314,0.0134277,0.0104736,
7316,0.00305176,0.0104614,
7318,-0.0335693,0.0106995,
7320,-0.00976563,0.0105042,
7322,-0.00549316,0.0102417,
7324,-0.00183105,0.0102417,
7326,-0.0256348,0.0104492,
7328,-0.0195313,0.0104919,
7330,0.000610352,0.0103027,
7332,0.00183105,0.01026,
7334,-0.00305176,0.0102417,
7336,0.0115967,0.0103271,
7338,-0.00793457,0.0102844,
7340,-0.0164795,0.0104126,
7342,0.00793457,0.0104431,
7344,0.0238037,0.0106201,
7346,0.00488281,0.0106079,
7348,0.00488281,0.0105591,
7350,-0.0250244,0.0105469,
7352,-0.0146484,0.0105896,
7354,0.0109863,0.010553,
7356,-0.0170898,0.0105286,
7358,-0.0158691,0.0105469,
7360,-0.0170898,0.0105774,
7362,-0.0109863,0.0105103,
7364,-0.00610352,0.0105652,
7366,-0.000610352,0.0105164,
7368,0.00244141,0.0104126,
7370,0.0219727,0.0106323,
7372,0.00793457,0.0105347,
7374,-0.00732422,0.0105774,
7376,-0.012207,0.0106262,
7378,0.00671387,0.010498,
7380,0.000610352,0.0103455,
7382,-0.0109863,0.010199,
7384,-0.0115967,0.0101013,
7386,-0.0134277,0.00991211,
7388,-0.000610352,0.00978394,
7390,-0.00732422,0.00971069,
7392,-0.00732422,0.00965576,
7394,0.00549316,0.00968628,
7396,-0.00915527,0.00975342,
7398,-0.010376,0.00979004,
7400,-0.00427246,0.00969238,
7402,0.00488281,0.00964966,
7404,0.00793457,0.0095459,
7406,-0.00976563,0.00946045,
7408,-0.0134277,0.00953979,
7410,0.0140381,0.00959473,
7412,0.00610352,0.00944214,
7414,0.0012207,0.00931396,
7416,-0.00549316,0.00936279,
7418,-0.00610352,0.00941162,
7420,-0.0134277,0.00942383,
7422,0.0115967,0.00950928,
7424,0.0183105,0.00958862,
7426,-0.0274658,0.00982056,
7428,-0.0152588,0.00996704,
7430,0.020752,0.0100952,
7432,0,0.0100342,
7434,0.0170898,0.0100281,
7436,0.00366211,0.0100281,
7438,-0.0140381,0.0101074,
7440,0,0.0100037,
7442,0.00244141,0.00999756,
7444,-0.00976563,0.00985718,
7446,-0.00671387,0.00980835,
7448,0.0012207,0.0097229,
7450,-0.0244141,0.00990601,
7452,-0.00183105,0.0098877,
7454,0.00610352,0.00982666,
7456,-0.022583,0.0100037,
7458,0.00671387,0.0100586,
7460,-0.0158691,0.0102051,
7462,-0.0146484,0.0100952,
7464,-0.00305176,0.00997925,
7466,-0.010376,0.010083,
7468,-0.0164795,0.0102234,
7470,-0.0177002,0.010376,
7472,-0.00671387,0.0103943,
7474,0.012207,0.0104553,
7476,-0.0305176,0.0107056,
7478,0.00305176,0.0107056,
7480,-0.00427246,0.010614,
7482,-0.00305176,0.0104736,
7484,0.00183105,0.0103577,
7486,-0.0189209,0.010498,
7488,-0.00671387,0.0104492,
7490,-0.00244141,0.0103516,
7492,0,0.0102661,
7494,0.0128174,0.0103821,
7496,0.0286865,0.0106506,
7498,-0.0305176,0.0108154,
7500,-0.0183105,0.0109924,
7502,0.0134277,0.0109131,
7504,0.00183105,0.0107361,
7506,-0.010376,0.0106628,
7508,-0.00915527,0.0107117,
7510,0,0.0106873,
7512,0.0164795,0.010553,
7514,-0.00610352,0.0104797,
7516,-0.0219727,0.0106689,
7518,0.0152588,0.0104858,
7520,0.00244141,0.0104126,
7522,-0.00732422,0.0104309,
7524,-0.00366211,0.0104492,
7526,-0.00671387,0.01026,
7528,-0.0128174,0.0101929,
7530,-0.0268555,0.0104553,
7532,-0.00854492,0.0105225,
7534,0.0109863,0.0106018,
7536,-0.0140381,0.0106262,
7538,-0.010376,0.0106506,
7540,0.00305176,0.0105164,
7542,-0.0146484,0.0105835,
7544,-0.00244141,0.0103699,
7546,-0.00671387,0.0103882,
7548,0.0146484,0.0104858,
7550,-0.00305176,0.0102661,
7552,-0.010376,0.0102234,
7554,0.010376,0.0102173,
7556,0.0158691,0.0102051,
7558,0.0170898,0.0102173,
7560,-0.0250244,0.0102966,
7562,0.00305176,0.0102173,
7564,0.020752,0.0103638,
7566,-0.0183105,0.0105408,
7568,-0.0189209,0.0107056,
7570,-0.0115967,0.0106018,
7572,-0.0238037,0.0107605,
7574,-0.0109863,0.0107971,
7576,-0.0164795,0.0108398,
7578,-0.0183105,0.0109558,
7580,-0.010376,0.0110535,
7582,-0.012207,0.0110657,
7584,0.00732422,0.0110229,
7586,0.00366211,0.0109253,
7588,-0.00183105,0.0109375,
7590,0.0109863,0.0109741,
7592,-0.00183105,0.0109192,
7594,0.00305176,0.0108948,
7596,0.0476074,0.0112793,
7598,-0.03479,0.0115234,
7600,0.00427246,0.0115234,
7602,-0.0012207,0.0114868,
7604,-0.0128174,0.0115356,
7606,-0.0109863,0.0115479,
7608,-0.0128174,0.0115417,
7610,-0.0317383,0.0117188,
7612,-0.0164795,0.0118225,
7614,-0.0128174,0.0119385,
7616,0,0.0118835,
7618,-0.0274658,0.0120972,
7620,-0.0140381,0.0121033,
7622,-0.0012207,0.0119995,
7624,-0.00732422,0.0118896,
7626,-0.00427246,0.0116577,
7628,0.00549316,0.0115601,
7630,0.00244141,0.011377,
7632,-0.00793457,0.0114563,
7634,0.0158691,0.0114441,
7636,-0.0152588,0.0115601,
7638,0.0109863,0.0115295,
7640,0.0201416,0.011731,
7642,0.0170898,0.0118774,
7644,-0.0219727,0.0119995,
7646,-0.0268555,0.0122009,
7648,0.00610352,0.0122498,
7650,0.0012207,0.0120178,
7652,-0.0231934,0.0122314,
7654,-0.00305176,0.0122009,
7656,-0.0213623,0.0121887,
7658,-0.0140381,0.012262,
7660,0.000610352,0.0121094,
7662,0.0128174,0.0120911,
7664,-0.00793457,0.0121399,
7666,0.0134277,0.0121704,
7668,0.00244141,0.01203,
7670,0.0195313,0.0120483,
7672,0.0152588,0.0121338,
7674,0.00488281,0.0120605,
7676,-0.0189209,0.0119446,
7678,-0.00976563,0.0120117,
7680,0.012207,0.0120911,
7682,-0.000610352,0.0120667,
7684,-0.0012207,0.0120605,
7686,-0.0476074,0.0123474,
7688,-0.00610352,0.0123413,
7690,0.00366211,0.0123535,
7692,-0.00732422,0.0124268,
7694,-0.0115967,0.0124146,
7696,0.0012207,0.0121399,
7698,-0.0134277,0.011969,
7700,-0.00427246,0.0118286,
7702,-0.0115967,0.0118103,
7704,-0.000610352,0.0117981,
7706,0,0.0116943,
7708,-0.000610352,0.0116089,
7710,0.00244141,0.0116333,
7712,0.000610352,0.0114746,
7714,-0.00427246,0.0114563,
7716,0.000610352,0.0112427,
7718,0.00793457,0.0111694,
7720,-0.00549316,0.0112,
7722,-0.00549316,0.0111816,
7724,-0.00488281,0.0111938,
7726,-0.00244141,0.0111511,
7728,-0.0012207,0.0110352,
7730,-0.00854492,0.0108521,
7732,-0.0201416,0.010968,
7734,0.00366211,0.0108948,
7736,0.00366211,0.010791,
7738,0.0140381,0.0108276,
7740,-0.00915527,0.0108887,
7742,-0.010376,0.0108459,
7744,0.00976563,0.0109192,
7746,-0.000610352,0.0108582,
7748,0.0128174,0.0108398,
7750,0.0140381,0.0109497,
7752,0,0.0108459,
7754,-0.0012207,0.0107544,
7756,0.0201416,0.0107971,
7758,0.0140381,0.0107666,
7760,-0.0134277,0.0106506,
7762,0,0.0106201,
7764,0.00732422,0.0104858,
7766,-0.00244141,0.0103271,
7768,-0.012207,0.01026,
7770,0.00244141,0.0101685,
7772,-0.0280762,0.0102112,
7774,0.00427246,0.010144,
7776,-0.012207,0.0101013,
7778,-0.00976563,0.0100159,
7780,0.00427246,0.00995483,
7782,-0.0195313,0.0100281,
7784,-0.00549316,0.0100098,
7786,-0.020752,0.0101807,
7788,-0.00183105,0.0101807,
7790,0.0012207,0.010083,
7792,-0.0134277,0.010199,
7794,-0.00976563,0.0102661,
7796,0.00793457,0.00986938,
7798,0.00793457,0.00960083,
7800,0.020752,0.00976563,
7802,-0.0317383,0.0100708,
7804,0.00732422,0.0100159,
7806,0.00427246,0.00994873,
7808,-0.00305176,0.00985107,
7810,-0.0109863,0.00964355,
7812,-0.00793457,0.00955811,
7814,0.0299072,0.009729,
7816,0.0115967,0.00984497,
7818,-0.045166,0.010022,
7820,0.0012207,0.0098938,
7822,0.0183105,0.0100647,
7824,0.0109863,0.0101013,
7826,-0.0262451,0.010321,
7828,-0.0213623,0.0104797,
7830,-0.0164795,0.0106201,
7832,-0.0189209,0.01073,
7834,-0.00366211,0.0106079,
7836,0.0170898,0.0106262,
7838,0.0335693,0.0108521,
7840,-0.012207,0.0107727,
7842,-0.0164795,0.0107666,
7844,0.0109863,0.0106567,
7846,0.00427246,0.0104309,
7848,-0.00549316,0.0104248,
7850,-0.0109863,0.0105225,
7852,-0.0201416,0.0104919,
7854,-0.0152588,0.010614,
7856,-0.00732422,0.0104736,
7858,-0.00854492,0.0104187,
7860,-0.00305176,0.0104431,
7862,0.0146484,0.0104614,
7864,0.0250244,0.0106323,
7866,-0.022583,0.0107239,
7868,-0.00915527,0.010791,
7870,0.0317383,0.0109131,
7872,-0.00183105,0.0107788,
7874,-0.0158691,0.0108887,
7876,-0.0164795,0.0108643,
7878,-0.00610352,0.0108276,
7880,-0.0140381,0.0108459,
7882,-0.0115967,0.0109558,
7884,-0.0164795,0.0111084,
7886,-0.0189209,0.0108215,
7888,-0.0115967,0.0108765,
7890,0.00793457,0.0109192,
7892,0.00183105,0.0108643,
7894,0.00488281,0.0107971,
7896,-0.00915527,0.0108765,
7898,0.0140381,0.0108826,
7900,-0.00732422,0.0109131,
7902,-0.0128174,0.0109253,
7904,0.00793457,0.0109985,
7906,-0.0152588,0.0111511,
7908,0.00488281,0.0111938,
7910,-0.000610352,0.0111755,
7912,0.0177002,0.0113464,
7914,0.0109863,0.0114136,
7916,-0.0177002,0.0115845,
7918,-0.0378418,0.0118835,
7920,0.0250244,0.0120789,
7922,0.012207,0.012146,
7924,-0.0268555,0.0123657,
7926,-0.0408936,0.0127502,
7928,-0.0177002,0.012915,
7930,-0.0115967,0.0129456,
7932,-0.00732422,0.0128174,
7934,-0.0140381,0.0129211,
7936,-0.00549316,0.0129395,
7938,0.00854492,0.0128845,
7940,-0.0189209,0.0129822,
7942,-0.00854492,0.0129639,
7944,0.00549316,0.0129211,
7946,-0.0012207,0.0129272,
7948,-0.00976563,0.0128967,
7950,-0.0158691,0.012915,
7952,0.00305176,0.0129456,
7954,0.00549316,0.0129883,
7956,-0.010376,0.0128906,
7958,0,0.0127502,
7960,0.00244141,0.0126404,
7962,0.00488281,0.0126892,
7964,0.00671387,0.0126831,
7966,-0.00854492,0.0127441,
7968,0.00610352,0.0126831,
7970,-0.00305176,0.0126892,
7972,0.00732422,0.0124817,
7974,-0.0280762,0.0127197,
7976,0.00610352,0.0126587,
7978,-0.010376,0.0126648,
7980,-0.00366211,0.0126587,
7982,-0.010376,0.0125671,
7984,-0.00244141,0.0125366,
7986,-0.00183105,0.0123474,
7988,-0.00915527,0.0124207,
7990,-0.00610352,0.0124695,
7992,-0.00427246,0.0123779,
7994,-0.00854492,0.0123657,
7996,-0.00854492,0.0123718,
7998,0.00671387,0.0123596,
8000,0.0146484,0.0122986,
8002,0.0268555,0.0122498,
8004,0.00427246,0.0122192,
8006,-0.0128174,0.0123047,
8008,-0.00366211,0.0123108,
8010,0.0146484,0.0123474,
8012,0,0.0122681,
8014,-0.0170898,0.0121399,
8016,-0.0170898,0.0121948,
8018,-0.0256348,0.0119995,
8020,0.012207,0.0121094,
8022,0.0384521,0.0123108,
8024,-0.03479,0.0125488,
8026,-0.0128174,0.0124146,
8028,0.0152588,0.0123535,
8030,0.000610352,0.0121948,
8032,-0.022583,0.0122314,
8034,-0.022583,0.0124207,
8036,-0.0158691,0.0124084,
8038,-0.0146484,0.0122192,
8040,-0.00854492,0.0121826,
8042,-0.00549316,0.0120728,
8044,-0.00427246,0.0120056,
8046,0.00305176,0.0119934,
8048,-0.00244141,0.0119629,
8050,-0.00732422,0.0119263,
8052,0.00366211,0.0117615,
8054,0.00549316,0.0116638,
8056,-0.00427246,0.0116333,
8058,-0.0134277,0.0116821,
8060,0.00244141,0.011676,
8062,0.00488281,0.0115784,
8064,-0.00244141,0.0113525,
8066,-0.0109863,0.0112366,
8068,0.000610352,0.0111511,
8070,0.00793457,0.0109131,
8072,0.00244141,0.0109192,
8074,-0.0164795,0.0109253,
8076,0.0244141,0.0110046,
8078,-0.0152588,0.0110962,
8080,0.0012207,0.010968,
8082,-0.00793457,0.0109314,
8084,0.00366211,0.0108032,
8086,-0.0115967,0.01073,
8088,-0.0128174,0.0107422,
8090,0.0012207,0.010675,
8092,-0.00549316,0.0107117,
8094,0.00427246,0.0107056,
8096,0.010376,0.0107178,
8098,-0.0238037,0.0108154,
8100,-0.00549316,0.0107971,
8102,0.00244141,0.0106934,
8104,0.000610352,0.0106201,
8106,-0.00305176,0.010498,
8108,-0.0244141,0.0106934,
8110,-0.0152588,0.0108398,
8112,-0.00488281,0.0107117,
8114,0.00488281,0.0106506,
8116,-0.00976563,0.0105713,
8118,-0.00610352,0.0102539,
8120,0.0262451,0.0102661,
8122,0.0195313,0.0103394,
8124,-0.00183105,0.0100891,
8126,-0.0128174,0.00980835,
8128,0.03479,0.00997925,
8130,-0.0134277,0.00999756,
8132,-0.0244141,0.0101685,
8134,0.000610352,0.0100342,
8136,-0.012207,0.0101013,
8138,-0.00793457,0.0100952,
8140,-0.0317383,0.0102234,
8142,-0.0152588,0.0102905,
8144,-0.0115967,0.0103516,
8146,-0.00793457,0.0104187,
8148,-0.0115967,0.010437,
8150,-0.0134277,0.0104126,
8152,-0.0109863,0.0104919,
8154,-0.00366211,0.0104736,
8156,-0.000610352,0.010376,
8158,-0.0146484,0.0105225,
8160,0.00549316,0.010553,
8162,-0.00854492,0.0105896,
8164,0.0115967,0.0106384,
8166,-0.00854492,0.0106384,
8168,-0.012207,0.0106995,
8170,-0.00427246,0.0107117,
8172,-0.0109863,0.0107483,
8174,0.000610352,0.0104736,
8176,-0.0134277,0.0105469,
8178,0.0146484,0.0105896,
8180,-0.00854492,0.0106384,
8182,0.00183105,0.010553,
8184,-0.0012207,0.0105408,
8186,0.0012207,0.0105347,
8188,-0.00976563,0.0105408,
8190,-0.00854492,0.0105652,
8192,-0.012207,0.0106445,
8194,-0.0012207,0.0105713,
8196,-0.00549316,0.0105408,
8198,0,0.0104736,
8200,-0.00366211,0.0103638,
8202,-0.0195313,0.0102905,
8204,0.0115967,0.0103638,
8206,0.00793457,0.0103149,
8208,-0.00549316,0.0103333,
8210,-0.0244141,0.0104309,
8212,-0.010376,0.0105347,
8214,-0.00732422,0.010437,
8216,-0.012207,0.0103882,
8218,-0.00427246,0.0101746,
8220,0.00671387,0.0101196,
8222,0.00549316,0.00979004,
8224,-0.00671387,0.00950928,
8226,-0.0177002,0.00955811,
8228,0.0317383,0.0097229,
8230,0.0201416,0.00991821,
8232,-0.0469971,0.0101624,
8234,0.00305176,0.00996704,
8236,0.0134277,0.00994263,
8238,-0.0238037,0.0100342,
8240,-0.0189209,0.0101379,
8242,-0.000610352,0.0100891,
8244,-0.012207,0.0101685,
8246,0.0115967,0.0102539,
8248,-0.0183105,0.0104126,
8250,-0.00549316,0.0103943,
8252,-0.0189209,0.0105469,
8254,0,0.0104919,
8256,-0.00488281,0.010498,
8258,-0.00732422,0.010437,
8260,-0.0146484,0.0105591,
8262,-0.0109863,0.0106201,
8264,0.00671387,0.0106628,
8266,0.0146484,0.0106995,
8268,0.0140381,0.0108337,
8270,-0.00671387,0.0108215,
8272,-0.0195313,0.0109924,
8274,0.0128174,0.0109558,
8276,0.00244141,0.0107361,
8278,0.00915527,0.010675,
8280,-0.0128174,0.010791,
8282,-0.00305176,0.0107422,
8284,-0.00366211,0.0107422,
8286,-0.00427246,0.0106689,
8288,-0.0012207,0.010553,
8290,-0.000610352,0.0105469,
8292,-0.00366211,0.0105286,
8294,-0.0177002,0.0106628,
8296,-0.00793457,0.0106384,
8298,-0.00427246,0.0104431,
8300,-0.0262451,0.0106506,
8302,-0.0146484,0.0107727,
8304,0.00244141,0.010791,
8306,-0.00610352,0.0108215,
8308,-0.0115967,0.0106934,
8310,0.000610352,0.0105469,
8312,-0.0158691,0.0106567,
8314,0.00244141,0.0106323,
8316,0.0146484,0.0106812,
8318,-0.0189209,0.0108093,
8320,-0.0219727,0.0107666,
8322,-0.000610352,0.0105774,
8324,0.0109863,0.0106689,
8326,-0.00183105,0.0105591,
8328,-0.00366211,0.0102478,
8330,-0.0134277,0.0102478,
8332,-0.0128174,0.0101318,
8334,0.0012207,0.0101379,
8336,-0.00610352,0.0100769,
8338,-0.00305176,0.0100281,
8340,-0.00549316,0.00976563,
8342,-0.00854492,0.00969849,
8344,0,0.00958252,
8346,-0.0201416,0.00970459,
8348,0.00976563,0.00968628,
8350,-0.010376,0.00965576,
8352,-0.0213623,0.00975952,
8354,0.0146484,0.00986938,
8356,0.00488281,0.00991211,
8358,-0.0299072,0.0100647,
8360,-0.0189209,0.010199,
8362,-0.00732422,0.0101868,
8364,-0.0109863,0.0101807,
8366,-0.00366211,0.0101318,
8368,-0.00793457,0.0100891,
8370,0.0189209,0.0102356,
8372,-0.00427246,0.0101685,
8374,0.00488281,0.0102112,
8376,-0.0140381,0.0102173,
8378,0.00366211,0.0101074,
8380,0.0164795,0.0101868,
8382,-0.0146484,0.0103149,
8384,-0.0189209,0.0104919,
8386,-0.0115967,0.0105957,
8388,-0.010376,0.0106018,
8390,-0.0109863,0.0106262,
8392,-0.00488281,0.010553,
8394,-0.000610352,0.0105469,
8396,0.0170898,0.0106628,
8398,0.0109863,0.0107727,
8400,-0.0213623,0.0109497,
8402,0.0286865,0.0110413,
8404,-0.00610352,0.0109863,
8406,-0.0219727,0.0111267,
8408,0.0012207,0.011084,
8410,-0.00732422,0.0109131,
8412,-0.0195313,0.0110046,
8414,-0.0274658,0.0112061,
8416,-0.0140381,0.0112244,
8418,-0.00915527,0.0112732,
8420,-0.0140381,0.0113464,
8422,-0.00427246,0.0113342,
8424,-0.00793457,0.0113464,
8426,-0.00854492,0.0112549,
8428,-0.00244141,0.0109619,
8430,-0.00427246,0.0108032,
8432,0.00366211,0.0103699,
8434,0.012207,0.0104614,
8436,-0.00366211,0.0103638,
8438,-0.0146484,0.0102722,
8440,0.00732422,0.0101563,
8442,0.00549316,0.0102051,
8444,-0.00854492,0.0101685,
8446,-0.00976563,0.0101501,
8448,-0.0128174,0.0100952,
8450,0.00488281,0.0100891,
8452,0.0109863,0.0100098,
8454,0.0012207,0.010022,
8456,-0.00915527,0.0100647,
8458,0.0286865,0.0102783,
8460,-0.00427246,0.0101746,
8462,0,0.0100647,
8464,0.010376,0.0101013,
8466,-0.0195313,0.0101501,
8468,-0.0250244,0.01026,
8470,-0.0115967,0.0103088,
8472,-0.00305176,0.010144,
8474,0,0.0100159,
8476,-0.0189209,0.0101807,
8478,-0.00549316,0.010144,
8480,0.00793457,0.0100952,
8482,0.00488281,0.0101135,
8484,-0.00793457,0.0101563,
8486,0.0012207,0.0101257,
8488,0.010376,0.0102173,
8490,-0.00427246,0.0102539,
8492,-0.00366211,0.0102539,
8494,-0.0170898,0.0102478,
8496,-0.00244141,0.0101929,
8498,0.00244141,0.0101746,
8500,-0.00244141,0.00993652,
8502,-0.00305176,0.00982056,
8504,-0.00732422,0.00986938,
8506,-0.00244141,0.00983276,
8508,0.00183105,0.00973511,
8510,0.00183105,0.00974731,
8512,-0.00976563,0.00968628,
8514,-0.00610352,0.0097229,
8516,-0.00183105,0.00959473,
8518,0.0134277,0.00953979,
8520,-0.0274658,0.00959473,
8522,-0.0213623,0.00980225,
8524,0.0115967,0.00980835,
8526,0.0152588,0.00994263,
8528,-0.0250244,0.0101563,
8530,-0.00183105,0.0100403,
8532,0.0152588,0.0100647,
8534,0.0280762,0.0103333,
8536,-0.0128174,0.0104004,
8538,-0.0390625,0.0107605,
8540,0.0140381,0.0108459,
8542,0.0115967,0.0108765,
8544,0.00732422,0.0109497,
8546,-0.0213623,0.0109619,
8548,-0.0311279,0.0111755,
