Dani_B_3-L01
Gráfico creado el:2026-06-03 17:00:32.414
Registro en:2026-06-03 17:02:25.639
2 mseg/muestras
2 canales
EMG
mV
EMG Integrado
mV-sec
milliSec,CH1,CH40,
,90076 samples,90076 samples,
0,-0.00488281,4.88281E-05,
2,-0.0134277,0.000183105,
4,0.0012207,0.000195313,
6,-0.00488281,0.000244141,
8,-0.0109863,0.000354004,
10,-0.00793457,0.00043335,
12,0.00732422,0.000506592,
14,0.00732422,0.000579834,
16,0.00976563,0.00067749,
18,-0.00671387,0.000744629,
20,-0.0164795,0.000909424,
22,0.00854492,0.000994873,
24,0.00183105,0.00101318,
26,-0.00976563,0.00111084,
28,-0.0201416,0.00131226,
30,-0.0140381,0.00145264,
32,-0.0140381,0.00159302,
34,-0.00854492,0.00167847,
36,-0.00488281,0.00172729,
38,-0.00793457,0.00180664,
40,-0.00305176,0.00183716,
42,-0.00793457,0.0019165,
44,0.0109863,0.00202637,
46,0.010376,0.00213013,
48,-0.012207,0.0022522,
50,-0.00488281,0.00230103,
52,0.00854492,0.00238647,
54,-0.010376,0.00249023,
56,-0.00427246,0.00253296,
58,-0.00915527,0.00262451,
60,-0.00671387,0.00269165,
62,-0.00854492,0.0027771,
64,-0.00366211,0.00281372,
66,-0.00366211,0.00285034,
68,-0.00732422,0.00292358,
70,-0.00244141,0.002948,
72,0,0.002948,
74,-0.00427246,0.00299072,
76,-0.00671387,0.00305786,
78,-0.00854492,0.00314331,
80,-0.00366211,0.00317993,
82,-0.0115967,0.0032959,
84,-0.00488281,0.00334473,
86,-0.00244141,0.00336914,
88,-0.00732422,0.00344238,
90,-0.00488281,0.00349121,
92,-0.00305176,0.00352173,
94,0.000610352,0.00352783,
96,-0.00244141,0.00355225,
98,-0.00793457,0.00363159,
100,0.0146484,0.00377808,
102,-0.00244141,0.00380249,
104,-0.0262451,0.00406494,
106,-0.00366211,0.00410156,
108,-0.00793457,0.00418091,
110,-0.00549316,0.00423584,
112,-0.012207,0.00435791,
114,-0.00854492,0.00444336,
116,-0.0152588,0.00459595,
118,-0.00732422,0.00466919,
120,-0.012207,0.00479126,
122,0.00427246,0.00483398,
124,-0.0115967,0.00494995,
126,-0.00915527,0.0050415,
128,-0.0109863,0.00515137,
130,-0.00732422,0.00522461,
132,-0.022583,0.00545044,
134,-0.0012207,0.00546265,
136,-0.00427246,0.00550537,
138,-0.0109863,0.00561523,
140,-0.00793457,0.00569458,
142,-0.00976563,0.00579224,
144,-0.00244141,0.00581665,
146,-0.00488281,0.00586548,
148,-0.00366211,0.0059021,
150,-0.0012207,0.00591431,
152,-0.00732422,0.00598755,
154,-0.00793457,0.00606689,
156,-0.0012207,0.0060791,
158,0.00976563,0.00617676,
160,0.00732422,0.00625,
162,-0.012207,0.00637207,
164,-0.00305176,0.00640259,
166,0.0140381,0.00654297,
168,0.00549316,0.0065979,
170,-0.0140381,0.00673828,
172,-0.0146484,0.00688477,
174,0,0.00688477,
176,-0.0109863,0.00699463,
178,-0.0109863,0.00710449,
180,-0.00854492,0.00718994,
182,-0.0177002,0.00736694,
184,-0.00305176,0.00739746,
186,-0.00854492,0.00748291,
188,-0.00671387,0.00755005,
190,-0.0012207,0.00756226,
192,0,0.00756226,
194,-0.00793457,0.0076416,
196,-0.00427246,0.00768433,
198,-0.0128174,0.0078125,
200,0,0.00776367,
202,0,0.00762939,
204,-0.00793457,0.00769653,
206,-0.0140381,0.00778809,
208,-0.00915527,0.00776978,
210,-0.00793457,0.00776978,
212,-0.00793457,0.00777588,
214,-0.00488281,0.00775146,
216,-0.00366211,0.00769043,
218,-0.00854492,0.00770874,
220,-0.00488281,0.00759277,
222,-0.000610352,0.00751343,
224,-0.00549316,0.00755005,
226,-0.00244141,0.00747681,
228,-0.00427246,0.00731812,
230,-0.00244141,0.00720215,
232,0.00366211,0.00709839,
234,-0.00244141,0.00703735,
236,-0.0274658,0.00726318,
238,0.00671387,0.00725098,
240,0.0109863,0.00733032,
242,-0.0146484,0.00739746,
244,-0.012207,0.00740967,
246,-0.00305176,0.00733643,
248,-0.000610352,0.00722046,
250,0.0170898,0.00734253,
252,-0.0115967,0.00737305,
254,-0.0158691,0.00742798,
256,0.00244141,0.00740967,
258,-0.00244141,0.00734253,
260,-0.00427246,0.00731812,
262,-0.012207,0.00735474,
264,-0.0115967,0.00743408,
266,-0.00732422,0.0074707,
268,-0.0140381,0.00753784,
270,-0.00488281,0.00756226,
272,-0.00244141,0.00758667,
274,-0.0012207,0.00755615,
276,-0.000610352,0.00749512,
278,0.00366211,0.00744629,
280,-0.00366211,0.00744629,
282,-0.00488281,0.00737915,
284,0.00854492,0.00741577,
286,0.00549316,0.00744629,
288,-0.0146484,0.00751953,
290,-0.0012207,0.00748291,
292,-0.00244141,0.00747681,
294,-0.010376,0.00757446,
296,-0.00671387,0.00761719,
298,-0.00671387,0.00760498,
300,-0.0012207,0.0074707,
302,0.00549316,0.00750122,
304,0.00427246,0.00728149,
306,-0.0195313,0.00744019,
308,-0.00610352,0.00742187,
310,0.00610352,0.00742798,
312,-0.00549316,0.00736084,
314,-0.0134277,0.00740967,
316,-0.012207,0.00737915,
318,-0.0128174,0.00743408,
320,-0.0128174,0.00744019,
322,-0.00976563,0.00749512,
324,-0.00305176,0.00740967,
326,-0.00915527,0.00740967,
328,-0.00976563,0.00739746,
330,-0.00610352,0.00738525,
332,-0.00427246,0.00720215,
334,0.0012207,0.00720215,
336,-0.00549316,0.00721436,
338,-0.0183105,0.0072876,
340,0.0012207,0.00722046,
342,0.00183105,0.00714111,
344,-0.0152588,0.00726929,
346,-0.0128174,0.00734863,
348,-0.010376,0.00741577,
350,0.000610352,0.00740967,
352,-0.00976563,0.00743408,
354,-0.00549316,0.00740967,
356,-0.000610352,0.00740356,
358,-0.00732422,0.00737915,
360,0.00366211,0.00734253,
362,-0.00976563,0.00731812,
364,-0.0115967,0.00740356,
366,-0.000610352,0.00726929,
368,-0.0158691,0.00737305,
370,-0.0152588,0.00738525,
372,-0.0115967,0.00735474,
374,-0.00915527,0.00744629,
376,-0.00610352,0.00739746,
378,0.00183105,0.00730591,
380,-0.00671387,0.0072876,
382,-0.0140381,0.00725098,
384,-0.0012207,0.00723267,
386,-0.0012207,0.00715942,
388,-0.00915527,0.00718384,
390,-0.00183105,0.00718994,
392,-0.00854492,0.00727539,
394,-0.0164795,0.00736084,
396,-0.0183105,0.00750122,
398,-0.00427246,0.00741577,
400,-0.00488281,0.0074646,
402,-0.0134277,0.00759888,
404,-0.012207,0.0076416,
406,-0.00915527,0.00759277,
408,-0.0128174,0.00762939,
410,0.00976563,0.00764771,
412,0.00549316,0.00762329,
414,0,0.00757446,
416,0.000610352,0.00754395,
418,-0.00244141,0.00748291,
420,-0.0128174,0.00756226,
422,0.00183105,0.00757446,
424,-0.00610352,0.00758057,
426,-0.0134277,0.00769043,
428,-0.0146484,0.00779419,
430,-0.012207,0.00789185,
432,-0.00610352,0.00791626,
434,0,0.00789185,
436,-0.00610352,0.00767822,
438,-0.00427246,0.00765381,
440,0.00976563,0.0076416,
442,-0.00427246,0.00753784,
444,0.00305176,0.00744629,
446,0.0012207,0.00742798,
448,0,0.00742187,
450,0.012207,0.00737305,
452,-0.0128174,0.00738525,
454,-0.00244141,0.00725098,
456,-0.00366211,0.00726318,
458,-0.00671387,0.00730591,
460,-0.00671387,0.00733032,
462,-0.0134277,0.00734253,
464,-0.00915527,0.00731812,
466,-0.00427246,0.0072876,
468,0.0012207,0.00715942,
470,-0.00854492,0.00719604,
472,-0.00671387,0.00723877,
474,0.00427246,0.00726929,
476,0.00427246,0.00730591,
478,-0.00183105,0.0072876,
480,-0.0128174,0.00737915,
482,-0.0012207,0.00734253,
484,0.00366211,0.0072937,
486,0.00976563,0.00733643,
488,0.00305176,0.00722046,
490,-0.0134277,0.00734253,
492,-0.0134277,0.00745239,
494,0.00305176,0.00737915,
496,-0.00305176,0.00734253,
498,-0.0134277,0.00740967,
500,-0.00854492,0.00748291,
502,-0.0128174,0.00755615,
504,-0.010376,0.00761719,
506,-0.00732422,0.00749512,
508,-0.00854492,0.00751953,
510,0.00488281,0.00750732,
512,-0.00366211,0.00748901,
514,-0.00549316,0.00740967,
516,0.0012207,0.0072998,
518,-0.00488281,0.00722046,
520,-0.00366211,0.00712891,
522,-0.00366211,0.00706787,
524,-0.00305176,0.00706787,
526,-0.00366211,0.00701294,
528,-0.00549316,0.00697021,
530,-0.00549316,0.00696411,
532,-0.00732422,0.00699463,
534,-0.000610352,0.00698853,
536,-0.00488281,0.00698242,
538,0.00793457,0.00687866,
540,-0.00854492,0.0069519,
542,-0.00488281,0.00698242,
544,-0.0115967,0.0069458,
546,0,0.00681763,
548,-0.00305176,0.00674438,
550,-0.00427246,0.00678101,
552,-0.022583,0.00690918,
554,-0.00976563,0.0069519,
556,-0.00488281,0.00699463,
558,-0.0109863,0.00703125,
560,-0.00671387,0.00706177,
562,-0.00366211,0.00700073,
564,0.00244141,0.00690918,
566,-0.00549316,0.00695801,
568,-0.00183105,0.00681763,
570,-0.00305176,0.00669556,
572,-0.0195313,0.0067749,
574,0.000610352,0.00668945,
576,-0.00549316,0.00668335,
578,-0.022583,0.00689087,
580,-0.00305176,0.00685425,
582,-0.0170898,0.00688477,
584,-0.0152588,0.00702515,
586,-0.00732422,0.00708618,
588,0,0.00699463,
590,-0.00427246,0.00701904,
592,-0.00732422,0.00700684,
594,-0.00671387,0.00690918,
596,-0.00488281,0.0067749,
598,-0.00366211,0.0067688,
600,-0.00427246,0.0067627,
602,-0.0140381,0.0067688,
604,-0.012207,0.0067688,
606,-0.00488281,0.00672607,
608,-0.00976563,0.00669556,
610,-0.00793457,0.00667725,
612,-0.012207,0.00674438,
614,-0.00549316,0.00679932,
616,-0.00488281,0.00684204,
618,-0.00427246,0.00686035,
620,0.00366211,0.0067688,
622,0.00427246,0.00679321,
624,-0.0146484,0.00687866,
626,-0.00366211,0.00678101,
628,0.0012207,0.00664673,
630,0.0012207,0.00653687,
632,-0.00244141,0.00650024,
634,-0.020752,0.00670776,
636,-0.00671387,0.00671387,
638,-0.00671387,0.00673828,
640,0.0012207,0.00665283,
642,-0.00915527,0.00670166,
644,0.0012207,0.00668335,
646,0.00244141,0.00669556,
648,-0.0195313,0.00689087,
650,-0.00732422,0.00684204,
652,-0.00305176,0.00674438,
654,-0.00793457,0.00679932,
656,-0.00976563,0.00686035,
658,-0.0177002,0.00697021,
660,-0.0109863,0.00701294,
662,-0.00793457,0.00695801,
664,-0.00915527,0.00695801,
666,-0.00366211,0.0069519,
668,-0.010376,0.00704346,
670,-0.00366211,0.00699463,
672,-0.0115967,0.00704346,
674,-0.00244141,0.00702515,
676,-0.00854492,0.00706787,
678,-0.00549316,0.00710449,
680,-0.00854492,0.00706177,
682,-0.00793457,0.00712891,
684,-0.00183105,0.0071106,
686,-0.00427246,0.00705566,
688,-0.00366211,0.00706177,
690,0.00244141,0.0069519,
692,-0.00915527,0.00690918,
694,-0.0128174,0.00700684,
696,0.00183105,0.00699463,
698,-0.00305176,0.00689087,
700,-0.00305176,0.00683594,
702,-0.00366211,0.00674438,
704,-0.00915527,0.00673218,
706,-0.0140381,0.00679932,
708,-0.0109863,0.00682373,
710,0.00610352,0.00683594,
712,-0.0244141,0.00704346,
714,-0.0274658,0.00726318,
716,-0.00671387,0.00731812,
718,-0.0152588,0.00742187,
720,-0.0195313,0.00758057,
722,-0.00793457,0.00762329,
724,-0.0115967,0.00770874,
726,-0.020752,0.00787964,
728,-0.00610352,0.00788574,
730,-0.00549316,0.00788574,
732,-0.010376,0.00791626,
734,-0.010376,0.00801392,
736,-0.0115967,0.00808105,
738,-0.012207,0.00812378,
740,-0.00671387,0.00810547,
742,-0.00732422,0.00812988,
744,-0.00732422,0.00808716,
746,-0.00793457,0.0081665,
748,-0.00793457,0.00821533,
750,-0.00366211,0.00820923,
752,-0.00732422,0.00805664,
754,0.00488281,0.00800781,
756,-0.00915527,0.00805054,
758,-0.0195313,0.00813599,
760,-0.00488281,0.00811768,
762,0,0.00808105,
764,-0.012207,0.00817871,
766,-0.00976563,0.00822144,
768,-0.0134277,0.0083374,
770,-0.0140381,0.00844727,
772,-0.00305176,0.00828247,
774,-0.00976563,0.00837402,
776,-0.00366211,0.00835571,
778,-0.00244141,0.0081543,
780,-0.0012207,0.00813599,
782,-0.0152588,0.00811768,
784,-0.00427246,0.00800781,
786,-0.00610352,0.00799561,
788,-0.00305176,0.00802612,
790,-0.00732422,0.00805664,
792,-0.0146484,0.00812988,
794,-0.0128174,0.00819092,
796,-0.0109863,0.00825195,
798,-0.00244141,0.00823975,
800,0.00427246,0.00823975,
802,-0.012207,0.00822144,
804,-0.0219727,0.00831909,
806,-0.00305176,0.00830078,
808,-0.0012207,0.00821533,
810,-0.0012207,0.00814819,
812,-0.0134277,0.0081604,
814,-0.0152588,0.00825806,
816,-0.00915527,0.00830078,
818,-0.0158691,0.00841675,
820,-0.00610352,0.00844116,
822,-0.0128174,0.00852661,
824,-0.00366211,0.00841675,
826,-0.0201416,0.00858154,
828,-0.0195313,0.00876465,
830,-0.00488281,0.00880127,
832,-0.00915527,0.00886841,
834,-0.0012207,0.0086731,
836,-0.00793457,0.0086853,
838,-0.00427246,0.00866089,
840,-0.0152588,0.00880127,
842,-0.00854492,0.00879517,
844,-0.00244141,0.00880737,
846,-0.00610352,0.00884399,
848,-0.0128174,0.00877686,
850,-0.00732422,0.00877686,
852,-0.0177002,0.00892334,
854,-0.0140381,0.00898438,
856,-0.00549316,0.00894165,
858,0.00183105,0.00878296,
860,0.0012207,0.0086853,
862,-0.00915527,0.00869751,
864,-0.0146484,0.00875244,
866,0.000610352,0.00872192,
868,-0.00793457,0.00869751,
870,-0.00610352,0.00872192,
872,-0.00976563,0.00870361,
874,-0.012207,0.00880127,
876,-0.0189209,0.00890503,
878,-0.00915527,0.00894165,
880,-0.012207,0.00897827,
882,-0.00793457,0.00897827,
884,-0.00854492,0.00904541,
886,-0.00976563,0.00910034,
888,-0.00732422,0.00913696,
890,-0.00671387,0.00917969,
892,-0.00854492,0.00917358,
894,-0.00671387,0.00911255,
896,0,0.00909424,
898,-0.0115967,0.00917969,
900,-0.00732422,0.00922241,
902,-0.0134277,0.00932007,
904,-0.00366211,0.00926514,
906,-0.00244141,0.00914917,
908,-0.000610352,0.00904541,
910,-0.0134277,0.00911865,
912,-0.00427246,0.00891724,
914,0.0109863,0.00875244,
916,-0.00488281,0.00873413,
918,-0.0219727,0.00880127,
920,-0.00549316,0.00866089,
922,-0.00305176,0.00861206,
924,-0.00427246,0.00853882,
926,-0.0128174,0.00845947,
928,-0.0183105,0.00858154,
930,-0.022583,0.00875244,
932,0.000610352,0.00865479,
934,-0.00549316,0.00860596,
936,-0.012207,0.00861206,
938,-0.00671387,0.00855713,
940,-0.00976563,0.00858765,
942,-0.0170898,0.0086853,
944,-0.0134277,0.00874634,
946,-0.00610352,0.00872803,
948,0,0.00864868,
950,-0.0115967,0.00872803,
952,-0.00976563,0.00875244,
954,-0.00244141,0.00872803,
956,-0.0244141,0.00888062,
958,0.00183105,0.00870361,
960,0.0152588,0.00880737,
962,-0.0189209,0.00899658,
964,-0.0128174,0.00900269,
966,-0.00183105,0.00892334,
968,-0.00366211,0.00882568,
970,-0.00488281,0.00873413,
972,-0.0219727,0.00892334,
974,-0.0109863,0.00893555,
976,-0.00671387,0.00896606,
978,-0.0134277,0.00907593,
980,-0.00183105,0.00908203,
982,-0.0140381,0.00906982,
984,-0.0183105,0.00921021,
986,-0.00671387,0.00921631,
988,-0.00610352,0.00924683,
990,-0.00671387,0.00924072,
992,-0.0128174,0.00922241,
994,-0.00488281,0.00914307,
996,-0.0128174,0.00916138,
998,-0.00732422,0.00921021,
1000,-0.0128174,0.00929565,
1002,-0.012207,0.00929565,
1004,-0.00854492,0.00916138,
1006,-0.00793457,0.00921021,
1008,-0.0164795,0.00936279,
1010,-0.00976563,0.00944824,
1012,-0.00793457,0.00939331,
1014,-0.00488281,0.00928955,
1016,0.0012207,0.00921021,
1018,-0.0128174,0.00917969,
1020,-0.00549316,0.00917358,
1022,0.00610352,0.00910645,
1024,-0.00366211,0.00910645,
1026,-0.0201416,0.00910645,
1028,-0.0146484,0.00905762,
1030,-0.010376,0.00911255,
1032,-0.0170898,0.00919189,
1034,-0.0164795,0.00934448,
1036,-0.010376,0.0093689,
1038,-0.0115967,0.00944214,
1040,-0.010376,0.00939331,
1042,-0.00976563,0.00940552,
1044,-0.0109863,0.00949097,
1046,-0.00793457,0.00950928,
1048,-0.00549316,0.00943604,
1050,-0.00366211,0.00939941,
1052,-0.00854492,0.00930786,
1054,-0.0109863,0.00927734,
1056,0.00305176,0.00925293,
1058,0.00732422,0.00930786,
1060,0.000610352,0.00930176,
1062,-0.0170898,0.0093811,
1064,0.00976563,0.00933228,
1066,0.00305176,0.00935669,
1068,-0.00488281,0.00932617,
1070,-0.0115967,0.0093811,
1072,-0.00793457,0.00936279,
1074,0.0115967,0.00935669,
1076,-0.000610352,0.00917358,
1078,-0.0238037,0.00932007,
1080,0.00427246,0.00924072,
1082,-0.00549316,0.00921631,
1084,-0.0158691,0.00928955,
1086,-0.0109863,0.00930176,
1088,-0.0189209,0.00941772,
1090,-0.0115967,0.00946655,
1092,-0.0140381,0.00952148,
1094,-0.0128174,0.00958252,
1096,-0.0134277,0.0097168,
1098,-0.00549316,0.00965576,
1100,-0.00610352,0.00964355,
1102,0.00183105,0.00952759,
1104,-0.00671387,0.00955811,
1106,-0.00610352,0.00959473,
1108,-0.00610352,0.00964966,
1110,-0.00305176,0.0095459,
1112,-0.00732422,0.00957642,
1114,0,0.00946655,
1116,-0.000610352,0.00942383,
1118,-0.010376,0.00930786,
1120,-0.00671387,0.00932007,
1122,0.00366211,0.00932617,
1124,-0.00244141,0.00930786,
1126,-0.00671387,0.00924683,
1128,-0.00793457,0.00914307,
1130,-0.0012207,0.00892944,
1132,-0.00488281,0.00897217,
1134,-0.00244141,0.00894165,
1136,-0.00305176,0.0088501,
1138,0.00244141,0.00880737,
1140,0.00854492,0.00879517,
1142,-0.00610352,0.0086853,
1144,-0.0115967,0.00866699,
1146,0.00488281,0.00865479,
1148,-0.00610352,0.00871582,
1150,0.00183105,0.00861816,
1152,-0.00915527,0.00861206,
1154,-0.0128174,0.00871582,
1156,-0.0140381,0.00861206,
1158,-0.0164795,0.00875854,
1160,0.00976563,0.00870361,
1162,0.00915527,0.00860596,
1164,-0.00976563,0.00857544,
1166,-0.0250244,0.00880737,
1168,-0.0012207,0.00878296,
1170,0.000610352,0.00874023,
1172,-0.012207,0.00864258,
1174,-0.0134277,0.00866699,
1176,-0.0134277,0.00873413,
1178,-0.0134277,0.00873413,
1180,-0.00671387,0.00878296,
1182,-0.0158691,0.00880127,
1184,-0.00915527,0.00870972,
1186,0.00610352,0.00870361,
1188,-0.0012207,0.00865479,
1190,-0.0158691,0.00874634,
1192,-0.0115967,0.00873413,
1194,-0.00488281,0.00873413,
1196,-0.0128174,0.00873413,
1198,-0.0128174,0.00878906,
1200,-0.00915527,0.00875244,
1202,-0.00976563,0.00872803,
1204,-0.00976563,0.00874023,
1206,-0.0109863,0.00877075,
1208,-0.0115967,0.00872192,
1210,-0.0012207,0.00863647,
1212,-0.00366211,0.00859375,
1214,-0.0158691,0.00870361,
1216,-0.00732422,0.00876465,
1218,-0.00793457,0.00871582,
1220,-0.000610352,0.00866699,
1222,-0.00732422,0.0086792,
1224,-0.0140381,0.00878296,
1226,-0.00183105,0.00859985,
1228,-0.00305176,0.00848389,
1230,-0.00732422,0.00845337,
1232,-0.00610352,0.00834351,
1234,0.00183105,0.00819702,
1236,-0.00732422,0.0081665,
1238,-0.00549316,0.00810547,
1240,-0.00549316,0.00805664,
1242,-0.010376,0.00806274,
1244,0,0.00795288,
1246,-0.010376,0.00797729,
1248,-0.012207,0.00804443,
1250,-0.00488281,0.00805664,
1252,-0.00244141,0.00799561,
1254,-0.000610352,0.00789185,
1256,-0.00549316,0.00791626,
1258,-0.0183105,0.00802612,
1260,0.00671387,0.00808716,
1262,-0.00854492,0.00800171,
1264,-0.0134277,0.00803833,
1266,-0.00366211,0.00804443,
1268,-0.0146484,0.00814209,
1270,-0.0146484,0.00817261,
1272,-0.00549316,0.00814819,
1274,-0.00793457,0.00811157,
1276,-0.0189209,0.00829468,
1278,-0.010376,0.0081604,
1280,0.00610352,0.00817871,
1282,-0.010376,0.00822754,
1284,-0.0146484,0.00821533,
1286,-0.00549316,0.0081604,
1288,-0.00244141,0.00799561,
1290,-0.00244141,0.00790405,
1292,-0.00732422,0.00783691,
1294,0,0.00770874,
1296,0.00183105,0.00759277,
1298,-0.010376,0.0076416,
1300,-0.00915527,0.00767212,
1302,-0.00732422,0.00772705,
1304,-0.00488281,0.00770874,
1306,-0.0012207,0.00765991,
1308,-0.00732422,0.00767212,
1310,-0.0134277,0.00777588,
1312,-0.00488281,0.00775146,
1314,-0.00854492,0.00783691,
1316,-0.00366211,0.00786743,
1318,-0.0012207,0.00777588,
1320,-0.00183105,0.00772705,
1322,-0.0146484,0.00783691,
1324,-0.00427246,0.00785522,
1326,0.00549316,0.00784302,
1328,-0.00488281,0.0078125,
1330,0.00549316,0.00785522,
1332,-0.00427246,0.00784912,
1334,-0.012207,0.00794678,
1336,-0.00488281,0.00796509,
1338,0.00183105,0.00795898,
1340,-0.00732422,0.00794678,
1342,-0.0195313,0.00808105,
1344,-0.00915527,0.00805664,
1346,-0.00915527,0.00809937,
1348,-0.0140381,0.00817871,
1350,-0.00793457,0.00823975,
1352,-0.0115967,0.00826416,
1354,-0.00915527,0.00822754,
1356,-0.00244141,0.00811157,
1358,-0.0140381,0.00808716,
1360,0.00305176,0.00802002,
1362,-0.0012207,0.00794067,
1364,-0.0012207,0.00785522,
1366,-0.00732422,0.00767822,
1368,-0.00793457,0.00774536,
1370,-0.000610352,0.00774536,
1372,0,0.00762329,
1374,-0.000610352,0.00749512,
1376,-0.0115967,0.00747681,
1378,-0.00671387,0.00740967,
1380,0.000610352,0.00734863,
1382,-0.0128174,0.00731812,
1384,-0.0012207,0.00723877,
1386,0.00793457,0.00725708,
1388,-0.0012207,0.00725708,
1390,-0.0170898,0.00726929,
1392,-0.0189209,0.00734253,
1394,0.00183105,0.00731201,
1396,-0.0128174,0.00731201,
1398,-0.022583,0.00740967,
1400,-0.00488281,0.00736694,
1402,-0.00610352,0.00733032,
1404,-0.0109863,0.00734253,
1406,-0.022583,0.0074585,
1408,-0.00976563,0.00744019,
1410,0.00671387,0.00749512,
1412,0.00244141,0.00748291,
1414,-0.00610352,0.00738525,
1416,-0.0170898,0.00748291,
1418,-0.00976563,0.00750122,
1420,-0.00732422,0.00756836,
1422,-0.00427246,0.00753784,
1424,-0.00793457,0.00747681,
1426,-0.00427246,0.00750122,
1428,-0.0134277,0.00760498,
1430,-0.00488281,0.00758057,
1432,-0.00366211,0.00755615,
1434,-0.00610352,0.00759888,
1436,-0.00671387,0.00759277,
1438,-0.00305176,0.00756836,
1440,-0.00244141,0.00753784,
1442,-0.0134277,0.00756836,
1444,-0.00793457,0.00764771,
1446,-0.00793457,0.00762329,
1448,-0.00732422,0.00757446,
1450,0,0.00752563,
1452,-0.00610352,0.00756226,
1454,-0.00549316,0.00761108,
1456,-0.0012207,0.00756836,
1458,0.000610352,0.00739136,
1460,-0.0012207,0.00733643,
1462,-0.0146484,0.00739746,
1464,-0.00488281,0.00731201,
1466,-0.00610352,0.00733643,
1468,-0.0140381,0.00733032,
1470,-0.0152588,0.00733643,
1472,-0.0170898,0.00745239,
1474,-0.0115967,0.00748901,
1476,-0.0012207,0.00731201,
1478,-0.00549316,0.00726318,
1480,0.00305176,0.00723267,
1482,-0.0012207,0.00714111,
1484,-0.0158691,0.00715332,
1486,0.000610352,0.00710449,
1488,0.00549316,0.00713501,
1490,-0.00244141,0.00713501,
1492,-0.0195313,0.00725708,
1494,-0.00610352,0.00731812,
1496,-0.00549316,0.00735474,
1498,-0.00610352,0.00731201,
1500,0.00427246,0.00726318,
1502,0.00183105,0.00720825,
1504,-0.0177002,0.00733643,
1506,-0.00366211,0.00736084,
1508,-0.00366211,0.00732422,
1510,0.00305176,0.00722046,
1512,-0.0146484,0.00731812,
1514,-0.0134277,0.00736694,
1516,-0.00488281,0.00737915,
1518,-0.00305176,0.00739746,
1520,-0.00854492,0.0074646,
1522,-0.0177002,0.00749512,
1524,-0.0012207,0.0074646,
1526,-0.00183105,0.00742798,
1528,-0.012207,0.00750122,
1530,-0.012207,0.00756836,
1532,-0.0134277,0.00765991,
1534,-0.00244141,0.00756226,
1536,-0.0128174,0.0076416,
1538,-0.00244141,0.00764771,
1540,0.0012207,0.00758667,
1542,-0.00305176,0.00742187,
1544,-0.00488281,0.00737915,
1546,-0.00610352,0.00734863,
1548,0.00549316,0.00726318,
1550,0.0170898,0.00735474,
1552,-0.0158691,0.00739746,
1554,-0.0238037,0.00754395,
1556,0.0012207,0.00753174,
1558,0.00488281,0.00744019,
1560,0.00549316,0.0074646,
1562,-0.00549316,0.00750732,
1564,-0.0256348,0.00775146,
1566,-0.00793457,0.00775757,
1568,-0.00366211,0.00771484,
1570,-0.00976563,0.0078064,
1572,-0.00976563,0.00790405,
1574,-0.010376,0.00800171,
1576,-0.0177002,0.00806274,
1578,-0.0134277,0.00812988,
1580,-0.00915527,0.00821533,
1582,-0.00854492,0.00817261,
1584,-0.00305176,0.00819092,
1586,-0.00183105,0.00812988,
1588,-0.000610352,0.00812378,
1590,-0.00915527,0.00804443,
1592,-0.00854492,0.00794067,
1594,-0.00183105,0.00794067,
1596,0.0012207,0.00782471,
1598,-0.00244141,0.00762329,
1600,-0.0115967,0.00769043,
1602,-0.0152588,0.00778198,
1604,-0.00366211,0.00770874,
1606,0.0012207,0.00749512,
1608,-0.0115967,0.00751343,
1610,-0.00427246,0.00748901,
1612,-0.00366211,0.00750122,
1614,-0.00305176,0.0074707,
1616,-0.00427246,0.00734253,
1618,0.00427246,0.0072876,
1620,0.00976563,0.00731201,
1622,-0.00732422,0.00734253,
1624,-0.00793457,0.00734253,
1626,0.0012207,0.00731201,
1628,-0.00549316,0.00723267,
1630,-0.00244141,0.00720825,
1632,-0.0146484,0.00731812,
1634,-0.00366211,0.0072937,
1636,0.00244141,0.00725098,
1638,-0.0134277,0.00735474,
1640,-0.0109863,0.00744019,
1642,-0.00854492,0.00739136,
1644,0.00610352,0.00737305,
1646,0.00366211,0.00733032,
1648,-0.0012207,0.00726929,
1650,-0.0146484,0.00741577,
1652,-0.00793457,0.00743408,
1654,0.000610352,0.00738525,
1656,-0.00183105,0.00739136,
1658,-0.0012207,0.00739746,
1660,-0.0109863,0.00749512,
1662,-0.00854492,0.00743408,
1664,0.00732422,0.0074585,
1666,-0.00183105,0.00741577,
1668,-0.010376,0.00737915,
1670,-0.0115967,0.00734253,
1672,-0.0012207,0.00718384,
1674,-0.00549316,0.0071228,
1676,-0.0134277,0.00724487,
1678,-0.0128174,0.00731812,
1680,-0.000610352,0.0072937,
1682,-0.00549316,0.00733643,
1684,-0.0140381,0.00731812,
1686,-0.00488281,0.00736084,
1688,-0.00244141,0.00733032,
1690,0.00610352,0.00736694,
1692,-0.0140381,0.00731201,
1694,-0.0115967,0.00736694,
1696,-0.00976563,0.00740967,
1698,-0.0140381,0.00748901,
1700,-0.00366211,0.00748291,
1702,-0.010376,0.00756836,
1704,-0.00793457,0.0074707,
1706,-0.00549316,0.00748901,
1708,-0.0152588,0.00760498,
1710,0,0.00757446,
1712,-0.00732422,0.00750122,
1714,-0.00976563,0.0074646,
1716,-0.00610352,0.00747681,
1718,-0.00610352,0.00750732,
1720,-0.00183105,0.00744019,
1722,-0.0109863,0.00737305,
1724,-0.00549316,0.00741577,
1726,0.00305176,0.00742798,
1728,-0.0109863,0.00741577,
1730,-0.0128174,0.00742187,
1732,-0.00854492,0.00737305,
1734,-0.00244141,0.00737305,
1736,-0.00976563,0.00734253,
1738,-0.00976563,0.00741577,
1740,-0.00366211,0.00744019,
1742,0.012207,0.00753174,
1744,-0.00305176,0.00751343,
1746,-0.0164795,0.00761719,
1748,-0.0115967,0.00767822,
1750,0.0012207,0.00751953,
1752,-0.012207,0.00748291,
1754,-0.0152588,0.00739746,
1756,-0.0183105,0.00756836,
1758,-0.0189209,0.00770874,
1760,-0.00976563,0.00775146,
1762,-0.00854492,0.00778198,
1764,-0.00488281,0.00757446,
1766,-0.00305176,0.00752563,
1768,-0.00488281,0.00753784,
1770,-0.00488281,0.00748901,
1772,-0.00549316,0.00744629,
1774,-0.00183105,0.00736084,
1776,-0.00183105,0.00720215,
1778,-0.00305176,0.00709839,
1780,-0.00610352,0.00706787,
1782,-0.00549316,0.00703735,
1784,0,0.00700684,
1786,-0.00366211,0.00702515,
1788,-0.00427246,0.00706177,
1790,-0.00183105,0.00698853,
1792,-0.00854492,0.00698853,
1794,-0.00488281,0.00701904,
1796,-0.00427246,0.00704956,
1798,-0.00610352,0.00708618,
1800,-0.00183105,0.00698853,
1802,-0.00732422,0.00690918,
1804,-0.00427246,0.00691528,
1806,-0.00244141,0.00692749,
1808,-0.00610352,0.00687256,
1810,-0.00183105,0.00684814,
1812,-0.00305176,0.00684204,
1814,-0.00305176,0.00684204,
1816,0.00366211,0.00683594,
1818,0.00671387,0.00686035,
1820,0.00854492,0.00684814,
1822,-0.0128174,0.00690308,
1824,-0.0134277,0.00695801,
1826,0.012207,0.00706787,
1828,-0.00610352,0.00707397,
1830,-0.0164795,0.00721436,
1832,-0.00549316,0.0071228,
1834,0.00305176,0.0071167,
1836,-0.010376,0.00719604,
1838,0.00366211,0.00709839,
1840,-0.00305176,0.00701904,
1842,-0.0158691,0.00709229,
1844,0.00671387,0.00709839,
1846,-0.00244141,0.00708618,
1848,-0.0158691,0.00723267,
1850,-0.00793457,0.00716553,
1852,-0.0164795,0.00725098,
1854,-0.00732422,0.00731812,
1856,0.00366211,0.00733643,
1858,0.00427246,0.00736694,
1860,0.00610352,0.00731812,
1862,-0.010376,0.00733643,
1864,0.00366211,0.0072998,
1866,-0.00244141,0.00730591,
1868,-0.00854492,0.0072876,
1870,-0.00549316,0.00722656,
1872,-0.00793457,0.0072937,
1874,-0.0012207,0.00725098,
1876,-0.00854492,0.00720215,
1878,-0.012207,0.00719604,
1880,0.0012207,0.00720215,
1882,-0.00854492,0.00723267,
1884,-0.000610352,0.00709839,
1886,0.00183105,0.00706787,
1888,-0.00488281,0.00709229,
1890,-0.00976563,0.00712891,
1892,-0.00732422,0.00706177,
1894,0.00427246,0.00698853,
1896,0.00366211,0.00692749,
1898,-0.00549316,0.00684204,
1900,-0.00854492,0.00689087,
1902,-0.000610352,0.00679321,
1904,0,0.00671387,
1906,-0.00305176,0.00668945,
1908,-0.00305176,0.00656738,
1910,0.0012207,0.00657959,
1912,-0.010376,0.00661011,
1914,-0.00244141,0.00653687,
1916,0.00427246,0.00651855,
1918,-0.00305176,0.00648804,
1920,0.0012207,0.00648193,
1922,-0.00488281,0.0064209,
1924,0.00488281,0.00641479,
1926,0.00183105,0.00640259,
1928,-0.0128174,0.0064209,
1930,-0.00183105,0.00631104,
1932,0.00549316,0.00628052,
1934,-0.00244141,0.00628052,
1936,-0.00793457,0.00626221,
1938,-0.00793457,0.0062439,
1940,-0.00610352,0.00626831,
1942,-0.00793457,0.00622559,
1944,-0.00244141,0.00621948,
1946,-0.00427246,0.00609741,
1948,-0.00793457,0.00606079,
1950,-0.00244141,0.006073,
1952,-0.010376,0.00605469,
1954,0,0.0059021,
1956,-0.00305176,0.00574951,
1958,-0.00427246,0.00560303,
1960,0.0012207,0.00551758,
1962,-0.0109863,0.00554199,
1964,-0.00732422,0.00556641,
1966,0.000610352,0.00554199,
1968,0.00427246,0.00553589,
1970,-0.00488281,0.00553589,
1972,-0.0140381,0.00562134,
1974,0,0.00560303,
1976,0.00488281,0.00563354,
1978,0.00732422,0.00567627,
1980,-0.0115967,0.0057312,
1982,-0.0189209,0.00586548,
1984,0.00427246,0.0059082,
1986,-0.00366211,0.0059082,
1988,-0.00305176,0.005896,
1990,0.00305176,0.0059082,
1992,-0.0195313,0.00601807,
1994,-0.00244141,0.00599365,
1996,0.00305176,0.00598145,
1998,-0.0152588,0.006073,
2000,0.0012207,0.00606689,
2002,-0.00854492,0.0060791,
2004,-0.00183105,0.00605469,
2006,-0.00305176,0.00606079,
2008,-0.0183105,0.00618286,
2010,-0.00793457,0.0062439,
2012,-0.00305176,0.0062439,
2014,-0.0012207,0.00622559,
2016,-0.00549316,0.0062439,
2018,-0.00671387,0.0062439,
2020,-0.0140381,0.00629883,
2022,-0.00671387,0.00623779,
2024,-0.00671387,0.00617065,
2026,-0.00915527,0.00614014,
2028,0.00610352,0.00614014,
2030,0.00488281,0.00602417,
2032,-0.0140381,0.00610962,
2034,-0.00488281,0.00612793,
2036,-0.000610352,0.00603027,
2038,-0.000610352,0.00599976,
2040,-0.00183105,0.00598755,
2042,-0.00427246,0.00587158,
2044,0.00183105,0.00582275,
2046,-0.0115967,0.00591431,
2048,-0.0158691,0.00591431,
2050,-0.00366211,0.00587158,
2052,-0.00488281,0.00575562,
2054,-0.00793457,0.00576172,
2056,-0.00854492,0.00581055,
2058,-0.012207,0.00588989,
2060,-0.00610352,0.00588989,
2062,-0.00976563,0.00588379,
2064,-0.00488281,0.005896,
2066,0,0.00587158,
2068,-0.00305176,0.00581665,
2070,-0.012207,0.00588379,
2072,-0.00183105,0.00582275,
2074,0.0012207,0.00582275,
2076,-0.0115967,0.00585327,
2078,-0.00671387,0.00579834,
2080,-0.00305176,0.00581665,
2082,-0.000610352,0.0057373,
2084,0.00915527,0.00582275,
2086,-0.00732422,0.00587769,
2088,-0.0128174,0.00595703,
2090,0.00366211,0.005896,
2092,-0.00488281,0.00587158,
2094,-0.00488281,0.00587769,
2096,-0.0115967,0.00595703,
2098,-0.0109863,0.00601196,
2100,-0.00305176,0.00595703,
2102,-0.00671387,0.00601807,
2104,0.00244141,0.00604248,
2106,-0.00305176,0.00604248,
2108,-0.00610352,0.006073,
2110,-0.000610352,0.00606689,
2112,-0.00549316,0.00601807,
2114,-0.00305176,0.00602417,
2116,-0.00183105,0.00599976,
2118,-0.00671387,0.00603638,
2120,-0.00427246,0.00606689,
2122,-0.0115967,0.00613403,
2124,-0.00671387,0.00615234,
2126,-0.00488281,0.00618286,
2128,-0.00427246,0.00609741,
2130,-0.00915527,0.00617065,
2132,-0.0115967,0.00623169,
2134,-0.00427246,0.00625,
2136,-0.00732422,0.0062439,
2138,-0.0012207,0.00617676,
2140,0.0012207,0.00612793,
2142,-0.000610352,0.00605469,
2144,-0.00854492,0.00611572,
2146,0.00732422,0.00614624,
2148,0.0128174,0.00619507,
2150,0.00183105,0.00618896,
2152,-0.0128174,0.00621338,
2154,-0.00976563,0.00631104,
2156,-0.00488281,0.00632935,
2158,0.00305176,0.00631714,
2160,-0.00183105,0.00632324,
2162,-0.0170898,0.00638428,
2164,-0.0109863,0.0064209,
2166,-0.00610352,0.00647583,
2168,0.000610352,0.00643921,
2170,0.000610352,0.00639648,
2172,-0.00183105,0.00627441,
2174,-0.00183105,0.00629272,
2176,-0.00244141,0.00626831,
2178,0.00549316,0.00625,
2180,0,0.00613403,
2182,-0.00732422,0.00601807,
2184,0.00244141,0.00599976,
2186,0.00732422,0.00603638,
2188,-0.00549316,0.00606079,
2190,0.00915527,0.00612183,
2192,-0.0128174,0.00605469,
2194,0.00549316,0.00608521,
2196,0.00854492,0.00614014,
2198,-0.00915527,0.0060791,
2200,-0.00732422,0.00614014,
2202,-0.00366211,0.00609131,
2204,0.00305176,0.00610352,
2206,-0.0012207,0.00608521,
2208,-0.0231934,0.00613403,
2210,-0.00610352,0.00611572,
2212,-0.00305176,0.00611572,
2214,-0.00427246,0.00614624,
2216,-0.010376,0.00619507,
2218,-0.012207,0.00625,
2220,-0.00732422,0.00618286,
2222,-0.00915527,0.00620728,
2224,-0.00427246,0.00618286,
2226,0.0012207,0.00610352,
2228,-0.0012207,0.00605469,
2230,-0.00366211,0.00604248,
2232,0.0012207,0.00591431,
2234,0.00305176,0.005896,
2236,0.00427246,0.00593262,
2238,-0.0109863,0.00603638,
2240,0.00732422,0.00609131,
2242,-0.00671387,0.00611572,
2244,-0.000610352,0.00610352,
2246,-0.00732422,0.00606079,
2248,-0.0012207,0.00591431,
2250,-0.0012207,0.00588989,
2252,-0.0189209,0.00603027,
2254,-0.00366211,0.00598755,
2256,-0.00305176,0.00593262,
2258,-0.0134277,0.00594482,
2260,0.00366211,0.00592041,
2262,0.00671387,0.00588989,
2264,-0.00427246,0.00588379,
2266,-0.0128174,0.00601196,
2268,-0.00427246,0.00602417,
2270,0.00427246,0.00594482,
2272,-0.00427246,0.00596924,
2274,-0.0012207,0.00596924,
2276,-0.0128174,0.00598145,
2278,-0.00793457,0.00599365,
2280,-0.00610352,0.00602417,
2282,-0.00732422,0.00609131,
2284,-0.00366211,0.00603638,
2286,-0.00366211,0.00599976,
2288,-0.00671387,0.00593872,
2290,0.00671387,0.00596924,
2292,-0.0170898,0.00609131,
2294,-0.00976563,0.00614014,
2296,-0.00183105,0.00604248,
2298,-0.00427246,0.00597534,
2300,-0.00366211,0.00598145,
2302,-0.00366211,0.00595093,
2304,-0.00915527,0.00601807,
2306,0,0.00598755,
2308,-0.00549316,0.00598145,
2310,0.000610352,0.00598145,
2312,-0.00915527,0.00601807,
2314,0.000610352,0.00599365,
2316,0.00488281,0.00602417,
2318,0.00427246,0.00599976,
2320,-0.0115967,0.006073,
2322,0.0140381,0.00609741,
2324,-0.010376,0.00613403,
2326,-0.010376,0.00618896,
2328,-0.00915527,0.00623779,
2330,-0.00488281,0.00619507,
2332,-0.0115967,0.00619507,
2334,-0.00732422,0.00622559,
2336,-0.012207,0.00627441,
2338,-0.00671387,0.00632935,
2340,-0.00488281,0.00636597,
2342,-0.00793457,0.00643921,
2344,0.00366211,0.00639038,
2346,-0.000610352,0.00632324,
2348,-0.00915527,0.00628662,
2350,-0.00427246,0.00631104,
2352,-0.00671387,0.00625,
2354,-0.00976563,0.00625,
2356,-0.00427246,0.0062439,
2358,-0.00671387,0.00628052,
2360,-0.00244141,0.00628662,
2362,-0.00305176,0.00614624,
2364,-0.00366211,0.006073,
2366,-0.000610352,0.00601807,
2368,0.00488281,0.00606079,
2370,0.00305176,0.00608521,
2372,0.00183105,0.00608521,
2374,-0.00915527,0.00615845,
2376,-0.00305176,0.00616455,
2378,-0.00305176,0.00614014,
2380,-0.00488281,0.00618896,
2382,-0.0152588,0.00626831,
2384,-0.0109863,0.00635376,
2386,-0.00671387,0.00634766,
2388,0.0012207,0.00630493,
2390,0.00610352,0.00627441,
2392,-0.00915527,0.00623779,
2394,0.0170898,0.00635376,
2396,0.00610352,0.00632935,
2398,-0.0189209,0.006427,
2400,-0.000610352,0.00635986,
2402,-0.00244141,0.00634766,
2404,-0.00732422,0.00639038,
2406,-0.012207,0.00650024,
2408,-0.0170898,0.00643921,
2410,-0.00549316,0.00643311,
2412,-0.00732422,0.00647583,
2414,-0.00305176,0.00646362,
2416,-0.000610352,0.00636597,
2418,-0.000610352,0.00625,
2420,-0.00366211,0.00621338,
2422,-0.00366211,0.00615845,
2424,0.010376,0.00621948,
2426,-0.00793457,0.00628662,
2428,-0.0183105,0.00645752,
2430,0.000610352,0.006427,
2432,-0.00854492,0.00650024,
2434,-0.0012207,0.00648193,
2436,-0.0109863,0.00654907,
2438,-0.00976563,0.00653687,
2440,-0.00793457,0.00654297,
2442,-0.00915527,0.00656738,
2444,-0.00366211,0.0065979,
2446,-0.00427246,0.00656738,
2448,-0.00305176,0.00658569,
2450,0.00915527,0.00666504,
2452,-0.0189209,0.00666504,
2454,-0.00427246,0.00667114,
2456,0.010376,0.00674438,
2458,-0.00549316,0.00666504,
2460,0.00793457,0.00670776,
2462,-0.00427246,0.00668335,
2464,-0.010376,0.00674438,
2466,-0.000610352,0.00662231,
2468,0.0012207,0.0065918,
2470,-0.00366211,0.00658569,
2472,0.00366211,0.00657959,
2474,0.00366211,0.006604,
2476,-0.0140381,0.00661621,
2478,-0.00793457,0.00661621,
2480,0.00427246,0.0065979,
2482,-0.0134277,0.00665894,
2484,-0.00549316,0.00667725,
2486,0.00366211,0.00667725,
2488,-0.00427246,0.00665283,
2490,-0.0158691,0.00674438,
2492,0.00610352,0.00663452,
2494,-0.00610352,0.0065979,
2496,-0.000610352,0.00658569,
2498,-0.00366211,0.00657959,
2500,-0.00671387,0.00661011,
2502,-0.0146484,0.00671997,
2504,-0.00732422,0.00670166,
2506,-0.0115967,0.00681763,
2508,-0.0189209,0.0069519,
2510,-0.00244141,0.00697021,
2512,-0.00427246,0.00692139,
2514,0.00366211,0.0069519,
2516,0.00366211,0.0069397,
2518,0.00427246,0.0069397,
2520,-0.00793457,0.00690308,
2522,0.00183105,0.00678101,
2524,0.0012207,0.00668945,
2526,-0.010376,0.00668945,
2528,-0.00244141,0.00662231,
2530,-0.0109863,0.00668335,
2532,-0.0189209,0.00675659,
2534,-0.00366211,0.00671997,
2536,-0.0012207,0.00661011,
2538,-0.0128174,0.00667114,
2540,0.00732422,0.00669556,
2542,0.0146484,0.0067627,
2544,0.00915527,0.00681763,
2546,-0.0134277,0.0069458,
2548,-0.0115967,0.00697021,
2550,0.00671387,0.00699463,
2552,-0.00976563,0.00702515,
2554,-0.00671387,0.00699463,
2556,-0.00244141,0.00697632,
2558,-0.0201416,0.0071106,
2560,-0.0213623,0.0072998,
2562,-0.00244141,0.0072937,
2564,-0.0012207,0.00726929,
2566,-0.00732422,0.00733643,
2568,-0.00671387,0.00735474,
2570,-0.0115967,0.00744019,
2572,-0.0128174,0.00755005,
2574,0,0.0074585,
2576,-0.00549316,0.00748291,
2578,-0.0109863,0.00756226,
2580,-0.00427246,0.00755615,
2582,-0.00610352,0.0074646,
2584,0.00244141,0.00737915,
2586,-0.00244141,0.00733643,
2588,0.00183105,0.00734253,
2590,-0.00366211,0.00731812,
2592,-0.0012207,0.00723877,
2594,0.00610352,0.00712891,
2596,-0.00610352,0.00712891,
2598,-0.00305176,0.00697021,
2600,-0.00488281,0.00701294,
2602,-0.00915527,0.00708008,
2604,0.00610352,0.00706787,
2606,0.00671387,0.00701294,
2608,-0.0164795,0.00700684,
2610,-0.00854492,0.00703735,
2612,-0.00366211,0.00700073,
2614,0.00183105,0.00698853,
2616,0.000610352,0.00698853,
2618,-0.00183105,0.00700073,
2620,-0.010376,0.00706787,
2622,-0.0140381,0.00717163,
2624,0.00732422,0.00714111,
2626,-0.012207,0.00718384,
2628,-0.0164795,0.00716553,
2630,-0.00305176,0.00718994,
2632,-0.00732422,0.00717773,
2634,-0.00915527,0.00725708,
2636,-0.0140381,0.0072876,
2638,-0.00427246,0.00723267,
2640,0.0012207,0.00716553,
2642,-0.00732422,0.00714722,
2644,-0.000610352,0.0071167,
2646,0.00915527,0.00716553,
2648,-0.00610352,0.00719604,
2650,-0.00244141,0.00712891,
2652,-0.00183105,0.00695801,
2654,-0.00549316,0.00697021,
2656,-0.000610352,0.00687256,
2658,-0.00488281,0.00686646,
2660,0.00366211,0.00682373,
2662,0.0128174,0.00690918,
2664,-0.0109863,0.00691528,
2666,-0.00488281,0.00695801,
2668,0.00793457,0.00702515,
2670,-0.00549316,0.00704346,
2672,-0.00366211,0.00704346,
2674,-0.0012207,0.00701904,
2676,-0.012207,0.00700073,
2678,-0.0201416,0.0071228,
2680,0.000610352,0.00708618,
2682,-0.00976563,0.00704956,
2684,0.00366211,0.00703125,
2686,-0.0115967,0.0071106,
2688,-0.00976563,0.00716553,
2690,0,0.00700684,
2692,-0.0012207,0.00695801,
2694,0,0.00689697,
2696,-0.00427246,0.00693359,
2698,-0.00610352,0.00695801,
2700,-0.00732422,0.00696411,
2702,-0.00793457,0.00689697,
2704,-0.00488281,0.00687256,
2706,0.00305176,0.00678711,
2708,-0.00671387,0.00666504,
2710,-0.0164795,0.00680542,
2712,0.000610352,0.0067688,
2714,0,0.00673218,
2716,-0.000610352,0.00670166,
2718,-0.00671387,0.00672607,
2720,-0.00549316,0.00670166,
2722,-0.0012207,0.00669556,
2724,0.0012207,0.00669556,
2726,-0.00427246,0.00663452,
2728,-0.0115967,0.00672607,
2730,0.0134277,0.00675049,
2732,0.000610352,0.00656738,
2734,-0.0134277,0.00666504,
2736,-0.00183105,0.00667114,
2738,-0.000610352,0.00654907,
2740,-0.00732422,0.00654907,
2742,-0.00732422,0.00647583,
2744,-0.00854492,0.00646973,
2746,-0.00732422,0.00640869,
2748,-0.00305176,0.00632324,
2750,0.0012207,0.00626831,
2752,-0.0134277,0.00630493,
2754,0.0012207,0.00625,
2756,0.00305176,0.0062561,
2758,-0.00610352,0.00611572,
2760,-0.0115967,0.00601807,
2762,-0.00305176,0.00602417,
2764,0.00244141,0.00603638,
2766,-0.0115967,0.0060791,
2768,-0.00915527,0.00610352,
2770,-0.00732422,0.00606079,
2772,-0.00305176,0.00596313,
2774,0.00183105,0.00598145,
2776,-0.00305176,0.00595703,
2778,-0.010376,0.00595093,
2780,-0.00244141,0.00593262,
2782,-0.000610352,0.00587769,
2784,0.0012207,0.00586548,
2786,-0.00976563,0.00593872,
2788,-0.00305176,0.00595093,
2790,0.00854492,0.00599976,
2792,-0.0012207,0.00599976,
2794,-0.00671387,0.00600586,
2796,0.000610352,0.00595093,
2798,-0.00488281,0.00596924,
2800,0.0012207,0.00593262,
2802,-0.0115967,0.00595703,
2804,-0.0109863,0.00600586,
2806,-0.00793457,0.00601807,
2808,-0.00915527,0.00594482,
2810,-0.0115967,0.00597534,
2812,-0.00793457,0.00601807,
2814,0.0012207,0.00601196,
2816,0.00183105,0.00602417,
2818,-0.000610352,0.00601196,
2820,-0.00244141,0.00593262,
2822,0.00305176,0.00582275,
2824,-0.00915527,0.00584106,
2826,-0.00244141,0.00574341,
2828,-0.00427246,0.00562134,
2830,-0.00976563,0.00568848,
2832,-0.0109863,0.0057251,
2834,-0.00610352,0.00569458,
2836,-0.0012207,0.00556641,
2838,-0.0012207,0.00553589,
2840,-0.00488281,0.00557251,
2842,-0.00610352,0.0055603,
2844,-0.00183105,0.00557251,
2846,0.00427246,0.00552368,
2848,0.00488281,0.00551147,
2850,0.0134277,0.00562134,
2852,-0.0177002,0.00578003,
2854,-0.0201416,0.00592651,
2856,-0.000610352,0.00592651,
2858,0.000610352,0.00588379,
2860,-0.00671387,0.00591431,
2862,-0.0158691,0.00594482,
2864,-0.0109863,0.00594482,
2866,-0.0115967,0.00601196,
2868,-0.00244141,0.00595703,
2870,0.00671387,0.00596924,
2872,-0.00244141,0.00595703,
2874,0.00427246,0.00598755,
2876,0.000610352,0.00587158,
2878,0.00793457,0.00574951,
2880,-0.00305176,0.00577393,
2882,-0.0158691,0.00583496,
2884,-0.00366211,0.00583496,
2886,-0.00305176,0.00574951,
2888,-0.010376,0.00575562,
2890,-0.00915527,0.00584717,
2892,-0.00854492,0.00592041,
2894,-0.00183105,0.00593872,
2896,-0.00427246,0.00593872,
2898,-0.000610352,0.00588379,
2900,0.0140381,0.00595093,
2902,-0.00488281,0.00592041,
2904,-0.00610352,0.00593262,
2906,-0.00183105,0.00592041,
2908,0.00366211,0.00588989,
2910,0.00732422,0.00579834,
2912,-0.00976563,0.00588989,
2914,-0.0183105,0.006073,
2916,0.00610352,0.00612793,
2918,-0.00244141,0.00608521,
2920,0.000610352,0.00603638,
2922,-0.0109863,0.00613403,
2924,0.00549316,0.00617676,
2926,0.00244141,0.00615845,
2928,-0.0109863,0.00615234,
2930,-0.0012207,0.00603027,
2932,-0.00305176,0.00605469,
2934,-0.00671387,0.00598755,
2936,-0.00488281,0.00601807,
2938,-0.00732422,0.00608521,
2940,-0.00427246,0.00605469,
2942,-0.00671387,0.00604858,
2944,0.00427246,0.00600586,
2946,0.00244141,0.00595703,
2948,-0.00244141,0.00595093,
2950,-0.00610352,0.00599976,
2952,0,0.00586548,
2954,0,0.00585327,
2956,-0.00610352,0.00588379,
2958,-0.012207,0.00594482,
2960,-0.00610352,0.00588989,
2962,-0.0012207,0.00587158,
2964,0.00183105,0.00586548,
2966,-0.00671387,0.00581665,
2968,-0.0146484,0.00587158,
2970,-0.00732422,0.00587158,
2972,-0.00244141,0.00586548,
2974,-0.00305176,0.00587769,
2976,-0.00366211,0.00588379,
2978,0.000610352,0.00578613,
2980,-0.0183105,0.00594482,
2982,-0.0152588,0.00609131,
2984,0.00488281,0.00612793,
2986,0.00183105,0.00604858,
2988,-0.00610352,0.0060791,
2990,-0.00183105,0.00601196,
2992,-0.0128174,0.00612793,
2994,-0.00610352,0.00612183,
2996,-0.0012207,0.00612793,
2998,0,0.0060791,
3000,0.00183105,0.00608521,
3002,-0.00549316,0.00602417,
3004,0.00915527,0.00600586,
3006,0.00427246,0.00596924,
3008,-0.00671387,0.00594482,
3010,-0.0115967,0.00594482,
3012,0.00488281,0.00591431,
3014,0.00305176,0.00593262,
3016,-0.00854492,0.00599976,
3018,-0.00671387,0.00606079,
3020,0.0012207,0.00604858,
3022,-0.0195313,0.00621338,
3024,-0.00183105,0.00614014,
3026,-0.00427246,0.00615845,
3028,-0.00488281,0.00616455,
3030,-0.00793457,0.00614624,
3032,-0.0109863,0.00614624,
3034,-0.00976563,0.00618286,
3036,-0.00488281,0.00621948,
3038,-0.00244141,0.00623169,
3040,0.00610352,0.0062439,
3042,-0.000610352,0.00618896,
3044,-0.00976563,0.00626831,
3046,0.00427246,0.00626831,
3048,-0.0115967,0.00633545,
3050,0.000610352,0.00620728,
3052,-0.010376,0.00613403,
3054,-0.00732422,0.00600586,
3056,0.00183105,0.00601807,
3058,-0.0140381,0.00615234,
3060,-0.0195313,0.00628052,
3062,-0.00366211,0.00615845,
3064,0.00183105,0.00606689,
3066,-0.00427246,0.00599365,
3068,-0.0128174,0.00609741,
3070,-0.00549316,0.00608521,
3072,-0.00183105,0.0060791,
3074,-0.00488281,0.00608521,
3076,-0.00244141,0.00610352,
3078,-0.00915527,0.00611572,
3080,-0.00854492,0.00617065,
3082,-0.00671387,0.0060791,
3084,-0.00305176,0.006073,
3086,-0.0012207,0.00605469,
3088,-0.00976563,0.00604858,
3090,-0.0146484,0.00610352,
3092,-0.0146484,0.00616455,
3094,-0.00427246,0.00618896,
3096,-0.00183105,0.00616455,
3098,-0.00793457,0.00623779,
3100,-0.0128174,0.00622559,
3102,-0.0115967,0.00629272,
3104,-0.00366211,0.00626831,
3106,0.00366211,0.00628662,
3108,-0.00305176,0.00628052,
3110,-0.00244141,0.00623169,
3112,-0.00610352,0.00619507,
3114,-0.00488281,0.00606079,
3116,0.000610352,0.00600586,
3118,-0.00610352,0.00604248,
3120,-0.0140381,0.00617676,
3122,-0.0115967,0.00618286,
3124,0,0.00612793,
3126,0.000610352,0.00610962,
3128,-0.00610352,0.00606079,
3130,0.00488281,0.00609741,
3132,-0.00793457,0.00614624,
3134,0.00915527,0.00617065,
3136,0.00549316,0.00617676,
3138,-0.020752,0.00631104,
3140,-0.00366211,0.00630493,
3142,0,0.00623779,
3144,-0.00976563,0.00629272,
3146,-0.010376,0.00637207,
3148,-0.0152588,0.00650024,
3150,-0.00488281,0.00648804,
3152,-0.00244141,0.00651245,
3154,-0.00305176,0.00654297,
3156,-0.0115967,0.0065979,
3158,-0.000610352,0.00648193,
3160,0.00793457,0.00650024,
3162,-0.00732422,0.00656128,
3164,0.00366211,0.00657959,
3166,-0.0140381,0.00665283,
3168,-0.00854492,0.0065918,
3170,-0.00488281,0.00656738,
3172,-0.00793457,0.00662231,
3174,-0.00549316,0.00664673,
3176,-0.0140381,0.00675049,
3178,-0.0128174,0.00687256,
3180,-0.00671387,0.00675659,
3182,-0.00793457,0.00668335,
3184,-0.00183105,0.00665283,
3186,-0.00183105,0.00665283,
3188,-0.00549316,0.00664673,
3190,-0.00366211,0.00666504,
3192,-0.00305176,0.00656738,
3194,-0.00183105,0.00652466,
3196,-0.00671387,0.00657959,
3198,-0.00427246,0.00662231,
3200,0.0012207,0.00661621,
3202,-0.00549316,0.00661621,
3204,-0.00549316,0.00657959,
3206,0.00305176,0.00656738,
3208,-0.00793457,0.00657959,
3210,-0.00305176,0.00649414,
3212,-0.00305176,0.00647583,
3214,0.00244141,0.00646973,
3216,-0.00671387,0.00645142,
3218,-0.00244141,0.00640869,
3220,-0.012207,0.00651855,
3222,-0.00732422,0.00639648,
3224,0.00793457,0.00645752,
3226,0.00610352,0.00647583,
3228,-0.00366211,0.00646362,
3230,-0.0152588,0.00653687,
3232,-0.00732422,0.00650024,
3234,0.0128174,0.00653076,
3236,-0.00549316,0.00653687,
3238,-0.0134277,0.00664673,
3240,-0.00305176,0.00661621,
3242,-0.0109863,0.00671997,
3244,-0.0177002,0.00679932,
3246,-0.00915527,0.00684814,
3248,-0.00732422,0.00680542,
3250,-0.00305176,0.00682983,
3252,-0.0164795,0.00689087,
3254,-0.0128174,0.0069458,
3256,-0.00915527,0.00701904,
3258,0.000610352,0.00688477,
3260,0.00244141,0.00671387,
3262,-0.00427246,0.00671997,
3264,-0.00610352,0.0067627,
3266,-0.00488281,0.0067688,
3268,-0.00366211,0.00667725,
3270,-0.00366211,0.00665894,
3272,-0.00549316,0.00669556,
3274,-0.0109863,0.00675659,
3276,-0.00366211,0.0067688,
3278,-0.0170898,0.00684814,
3280,-0.00366211,0.00679932,
3282,-0.00915527,0.00682373,
3284,-0.00549316,0.00684814,
3286,-0.00732422,0.00690918,
3288,-0.00427246,0.00685425,
3290,-0.00366211,0.00674438,
3292,-0.00427246,0.00664063,
3294,-0.00549316,0.00665283,
3296,0.012207,0.00675659,
3298,-0.00366211,0.00671387,
3300,0.00244141,0.00661011,
3302,-0.022583,0.00671997,
3304,-0.00427246,0.00672607,
3306,-0.00244141,0.00671387,
3308,-0.00915527,0.0067749,
3310,-0.00671387,0.00681763,
3312,-0.00793457,0.00683594,
3314,-0.012207,0.00690918,
3316,-0.00183105,0.00692139,
3318,-0.00793457,0.0069397,
3320,0.00549316,0.00685425,
3322,0.00305176,0.0067688,
3324,-0.0012207,0.00678101,
3326,-0.00427246,0.00681763,
3328,-0.00915527,0.00684814,
3330,0.0189209,0.00698853,
3332,-0.00488281,0.00695801,
3334,-0.0213623,0.00708008,
3336,-0.00488281,0.00707397,
3338,0.00183105,0.00688477,
3340,-0.00732422,0.00692139,
3342,-0.0158691,0.00708008,
3344,-0.0140381,0.0071228,
3346,-0.00854492,0.00710449,
3348,-0.010376,0.00705566,
3350,0.0012207,0.00701904,
3352,-0.00915527,0.00708618,
3354,-0.00976563,0.00715332,
3356,0.00366211,0.00707397,
3358,-0.00915527,0.00715942,
3360,-0.0012207,0.00709229,
3362,-0.000610352,0.00702515,
3364,0,0.00698853,
3366,-0.00183105,0.00686646,
3368,0.000610352,0.00678711,
3370,-0.0128174,0.00686646,
3372,0.000610352,0.00679321,
3374,0.00732422,0.00681152,
3376,-0.00427246,0.00671387,
3378,-0.0134277,0.00671997,
3380,-0.00427246,0.00669556,
3382,-0.0109863,0.00672607,
3384,0.00488281,0.00675659,
3386,-0.000610352,0.00674438,
3388,-0.0140381,0.00682983,
3390,-0.00793457,0.00687256,
3392,0.00549316,0.00689697,
3394,-0.00366211,0.00691528,
3396,-0.0128174,0.00697632,
3398,-0.00366211,0.00697021,
3400,-0.00305176,0.00698853,
3402,-0.010376,0.00703735,
3404,0.0012207,0.00699463,
3406,0.00244141,0.00698853,
3408,0.00183105,0.00692749,
3410,-0.0115967,0.00701294,
3412,0,0.00698242,
3414,0.00915527,0.00704956,
3416,0.00732422,0.00705566,
3418,-0.00488281,0.00708008,
3420,-0.0140381,0.00709839,
3422,-0.00488281,0.00707397,
3424,-0.00549316,0.00704956,
3426,-0.00732422,0.00706177,
3428,-0.00854492,0.0071106,
3430,-0.00610352,0.00701904,
3432,-0.0128174,0.00707397,
3434,-0.00305176,0.00697632,
3436,0.012207,0.00704346,
3438,0.010376,0.00701294,
3440,-0.00610352,0.00704346,
3442,-0.0189209,0.0071228,
3444,0.0128174,0.00707397,
3446,0.00549316,0.00703735,
3448,-0.00427246,0.00700684,
3450,-0.0109863,0.00708618,
3452,-0.0146484,0.00706787,
3454,-0.00793457,0.00701904,
3456,-0.00366211,0.00696411,
3458,-0.00549316,0.00701294,
3460,-0.0012207,0.00700073,
3462,-0.00549316,0.00701294,
3464,-0.00366211,0.00698853,
3466,-0.00427246,0.00698242,
3468,-0.010376,0.00704956,
3470,-0.000610352,0.00701904,
3472,0,0.00696411,
3474,-0.00671387,0.00692139,
3476,-0.00488281,0.00693359,
3478,-0.00732422,0.00683594,
3480,-0.00366211,0.00683594,
3482,-0.00549316,0.00679932,
3484,0,0.00674438,
3486,-0.00427246,0.00671387,
3488,0,0.00667114,
3490,-0.00610352,0.00669556,
3492,-0.00183105,0.00667114,
3494,0.00610352,0.00667725,
3496,0.00976563,0.00665283,
3498,-0.00976563,0.00671387,
3500,0.00793457,0.0067688,
3502,0.0012207,0.00655518,
3504,-0.000610352,0.00651855,
3506,-0.00793457,0.00657349,
3508,-0.0177002,0.00665894,
3510,0,0.0065918,
3512,-0.00854492,0.0065979,
3514,-0.0115967,0.0065918,
3516,-0.0115967,0.00668945,
3518,-0.00793457,0.00668945,
3520,-0.00549316,0.00668945,
3522,-0.00427246,0.00670166,
3524,0.00793457,0.0067688,
3526,-0.00305176,0.00675659,
3528,-0.00610352,0.00672607,
3530,0.00732422,0.00661011,
3532,0.00305176,0.0065918,
3534,-0.0158691,0.00653687,
3536,-0.0115967,0.006604,
3538,0.0012207,0.0065979,
3540,-0.00915527,0.00661621,
3542,-0.0109863,0.00656738,
3544,-0.00976563,0.00652466,
3546,-0.00732422,0.00651245,
3548,-0.00610352,0.00646973,
3550,0,0.00645752,
3552,-0.0109863,0.00647583,
3554,0,0.00637817,
3556,-0.00305176,0.00637207,
3558,-0.00610352,0.00634155,
3560,-0.00366211,0.00636597,
3562,-0.00610352,0.0064209,
3564,-0.00244141,0.00644531,
3566,0.00671387,0.00649414,
3568,0.00793457,0.00656738,
3570,0.0201416,0.00664063,
3572,0.012207,0.00675659,
3574,-0.0244141,0.00692749,
3576,0.00793457,0.00696411,
3578,0.0012207,0.00684204,
3580,-0.00610352,0.00686035,
3582,-0.0115967,0.00686646,
3584,-0.0170898,0.00698853,
3586,-0.0164795,0.00714722,
3588,0.0012207,0.00701904,
3590,0.00366211,0.00697632,
3592,0.00610352,0.00698242,
3594,0.0152588,0.00709839,
3596,-0.000610352,0.00697632,
3598,0.0115967,0.00705566,
3600,0.00610352,0.00708618,
3602,-0.0238037,0.00722046,
3604,0.00244141,0.00723267,
3606,-0.0146484,0.00735474,
3608,-0.00915527,0.00742798,
3610,0.00488281,0.00736084,
3612,-0.00366211,0.00739746,
3614,-0.0219727,0.00752563,
3616,-0.0128174,0.00758057,
3618,0.0012207,0.00754395,
3620,-0.010376,0.00750732,
3622,-0.0134277,0.00759277,
3624,-0.0195313,0.00773315,
3626,-0.00915527,0.00775146,
3628,-0.00549316,0.00772095,
3630,-0.0152588,0.0078125,
3632,-0.0183105,0.00786743,
3634,0.00427246,0.00787964,
3636,-0.00549316,0.0078125,
3638,-0.00915527,0.00780029,
3640,-0.0012207,0.00775146,
3642,-0.0195313,0.00775757,
3644,-0.0140381,0.00776978,
3646,-0.00671387,0.00778198,
3648,-0.00976563,0.00783691,
3650,-0.00488281,0.00777588,
3652,-0.00732422,0.00770264,
3654,0.00854492,0.00770874,
3656,0.010376,0.00777588,
3658,0,0.00772095,
3660,-0.00732422,0.00778198,
3662,0.00610352,0.00778809,
3664,0.0152588,0.00790405,
3666,-0.00732422,0.00793457,
3668,-0.0152588,0.0079834,
3670,-0.00366211,0.00801392,
3672,-0.00549316,0.00806885,
3674,-0.0189209,0.00819092,
3676,-0.00732422,0.00821533,
3678,0.0012207,0.0081543,
3680,0.00732422,0.00819092,
3682,-0.0128174,0.00826416,
3684,-0.00183105,0.00828247,
3686,-0.00427246,0.00828247,
3688,-0.000610352,0.00828857,
3690,-0.00671387,0.00829468,
3692,-0.0012207,0.00828857,
3694,-0.0152588,0.00838013,
3696,-0.0109863,0.00839233,
3698,-0.0146484,0.00844116,
3700,-0.00427246,0.00840454,
3702,0.00793457,0.00847168,
3704,-0.0115967,0.00858154,
3706,-0.0219727,0.00872192,
3708,0.00183105,0.00856323,
3710,0.0012207,0.00857544,
3712,-0.00732422,0.00856323,
3714,-0.0146484,0.00859375,
3716,-0.00488281,0.00852661,
3718,-0.00732422,0.00852051,
3720,-0.010376,0.00856934,
3722,0.00183105,0.00854492,
3724,0.00427246,0.0085083,
3726,0.0158691,0.00863647,
3728,0.00366211,0.00861206,
3730,-0.00549316,0.00859375,
3732,0.00244141,0.00858765,
3734,0,0.00842896,
3736,0,0.00831299,
3738,-0.00976563,0.00839844,
3740,-0.0158691,0.00846558,
3742,-0.0115967,0.00847168,
3744,-0.00244141,0.00839844,
3746,-0.0219727,0.00854492,
3748,-0.010376,0.00858765,
3750,0,0.00858765,
3752,0.00244141,0.0085022,
3754,-0.0158691,0.00866089,
3756,0.0189209,0.00881958,
3758,-0.0231934,0.00899048,
3760,-0.00610352,0.00901489,
3762,0.00183105,0.00897217,
3764,-0.010376,0.00905151,
3766,-0.00549316,0.00903931,
3768,-0.0134277,0.00909424,
3770,-0.010376,0.00899658,
3772,-0.0183105,0.00905762,
3774,0.00305176,0.00884399,
3776,-0.00549316,0.00881958,
3778,-0.00793457,0.00888672,
3780,-0.0012207,0.00883789,
3782,-0.00427246,0.00876465,
3784,0.00488281,0.00864258,
3786,-0.0140381,0.00861816,
3788,-0.00671387,0.0086731,
3790,0.00488281,0.0086853,
3792,-0.0140381,0.00876465,
3794,-0.0244141,0.0088562,
3796,-0.0012207,0.0088623,
3798,0,0.00874634,
3800,-0.00671387,0.00875244,
3802,-0.0195313,0.00870972,
3804,0.00610352,0.00874634,
3806,0.000610352,0.00860596,
3808,0.00366211,0.00855103,
3810,0.00976563,0.00859985,
3812,-0.00610352,0.00862427,
3814,-0.00793457,0.00848389,
3816,0.0164795,0.00852051,
3818,-0.00183105,0.00852661,
3820,-0.00976563,0.00852051,
3822,-0.0164795,0.00855103,
3824,-0.00549316,0.00841064,
3826,-0.00183105,0.0083374,
3828,0.0012207,0.00829468,
3830,-0.00305176,0.00817261,
3832,-0.0109863,0.00809937,
3834,0.0274658,0.0083313,
3836,-0.043335,0.00870972,
3838,0.00305176,0.00864868,
3840,-0.00427246,0.0086792,
3842,-0.00854492,0.00856934,
3844,-0.00854492,0.0085144,
3846,-0.0323486,0.00877075,
3848,-0.00366211,0.00870972,
3850,0.00183105,0.0086792,
3852,-0.00488281,0.00865479,
3854,-0.000610352,0.00857544,
3856,0.00549316,0.00852661,
3858,0.00549316,0.00858154,
3860,0.0268555,0.00877686,
3862,-0.0384521,0.00910034,
3864,-0.0164795,0.00911255,
3866,0.0177002,0.00921631,
3868,-0.0012207,0.00907593,
3870,-0.0299072,0.00933838,
3872,-0.0219727,0.00950317,
3874,-0.0268555,0.00958252,
3876,-0.012207,0.00963135,
3878,-0.00488281,0.00966797,
3880,-0.0238037,0.00983276,
3882,-0.0189209,0.0098938,
3884,-0.00244141,0.0098999,
3886,-0.0231934,0.0100891,
3888,-0.0231934,0.0103149,
3890,0.00732422,0.010321,
3892,-0.00610352,0.0103699,
3894,-0.0317383,0.0105347,
3896,-0.0219727,0.0106445,
3898,0.00244141,0.0105225,
3900,-0.00793457,0.0105591,
3902,-0.0134277,0.010614,
3904,-0.00488281,0.0105469,
3906,0.00549316,0.0103821,
3908,0.00183105,0.0103821,
3910,-0.00610352,0.0104309,
3912,0.00244141,0.0103821,
3914,-0.00488281,0.0102844,
3916,0.00427246,0.0102783,
3918,0,0.0102051,
3920,-0.00305176,0.0101318,
3922,-0.0189209,0.0103027,
3924,-0.0183105,0.0104431,
3926,0.00671387,0.0103516,
3928,-0.0292969,0.0106079,
3930,-0.0177002,0.01073,
3932,-0.0128174,0.0108337,
3934,-0.00915527,0.0109253,
3936,-0.010376,0.0110291,
3938,-0.0366211,0.0112976,
3940,-0.00610352,0.0112,
3942,0.00549316,0.0111389,
3944,-0.00854492,0.0112,
3946,-0.020752,0.0111877,
3948,-0.010376,0.0111877,
3950,-0.00488281,0.0112366,
3952,-0.00915527,0.0113037,
3954,-0.00183105,0.0111633,
3956,-0.00549316,0.0110291,
3958,0.0134277,0.0109314,
3960,0.00671387,0.0109375,
3962,0.00854492,0.0110046,
3964,-0.00610352,0.0109619,
3966,-0.00976563,0.0110046,
3968,-0.012207,0.0109924,
3970,0.0134277,0.0110229,
3972,0.022583,0.0110657,
3974,-0.012207,0.0111572,
3976,-0.0408936,0.0115112,
3978,-0.0292969,0.0117249,
3980,0.0152588,0.0118652,
3982,-0.0213623,0.0120361,
3984,-0.0360107,0.0123474,
3986,-0.0317383,0.0125244,
3988,-0.0177002,0.0126343,
3990,0.00305176,0.012616,
3992,-0.0335693,0.0128113,
3994,-0.0231934,0.0127991,
3996,0.00183105,0.0128052,
3998,0.032959,0.0131348,
4000,-0.00244141,0.013092,
4002,-0.0335693,0.0132324,
4004,0.00366211,0.013208,
4006,-0.0134277,0.0133362,
4008,-0.0164795,0.0134644,
4010,-0.0231934,0.0135986,
4012,-0.00183105,0.0135559,
4014,0.00671387,0.0135437,
4016,-0.0415039,0.0137939,
4018,0.0012207,0.0137878,
4020,0.00366211,0.0137268,
4022,-0.0158691,0.0137207,
4024,-0.0183105,0.0138489,
4026,-0.0170898,0.0140015,
4028,-0.00976563,0.0140869,
4030,-0.00915527,0.0141479,
4032,-0.00793457,0.0141174,
4034,0.0164795,0.0140076,
4036,-0.0262451,0.0138367,
4038,-0.00793457,0.0138855,
4040,-0.00732422,0.013916,
4042,0.00244141,0.013855,
4044,-0.00488281,0.0138184,
4046,0.00549316,0.0135498,
4048,0.00366211,0.0135498,
4050,-0.020752,0.013739,
4052,-0.00976563,0.0137878,
4054,-0.0201416,0.0139832,
4056,-0.00732422,0.0140015,
4058,-0.000610352,0.0139526,
4060,-0.00183105,0.0137024,
4062,-0.0262451,0.0135803,
4064,-0.022583,0.0136414,
4066,-0.0152588,0.0136169,
4068,-0.00488281,0.0136536,
4070,0.00305176,0.013385,
4072,-0.00915527,0.0132568,
4074,-0.00854492,0.0130737,
4076,-0.00854492,0.0130371,
4078,-0.00549316,0.0130432,
4080,-0.00305176,0.0128357,
4082,-0.012207,0.0127686,
4084,0,0.0127441,
4086,-0.0109863,0.0126221,
4088,-0.0134277,0.0125244,
4090,0.0140381,0.0125916,
4092,-0.00732422,0.0126038,
4094,-0.00671387,0.0123535,
4096,0.00427246,0.0121765,
4098,-0.00671387,0.0122192,
4100,0.00610352,0.0122009,
4102,0.00732422,0.0121399,
4104,-0.022583,0.0123169,
4106,-0.00915527,0.0123535,
4108,-0.0219727,0.0125549,
4110,-0.00976563,0.0125916,
4112,0.0012207,0.0125793,
4114,-0.0354004,0.0128845,
4116,-0.00244141,0.0128662,
4118,0.00976563,0.0129639,
4120,0.00610352,0.0129944,
4122,-0.000610352,0.0128113,
4124,-0.0219727,0.0128479,
4126,0.00427246,0.0128235,
4128,0.0189209,0.0127197,
4130,-0.00671387,0.0126099,
4132,-0.0286865,0.0127686,
4134,0.00366211,0.0127136,
4136,-0.0476074,0.0130859,
4138,0.0164795,0.0128845,
4140,0.00305176,0.012854,
4142,-0.0231934,0.013031,
4144,-0.0158691,0.0131042,
4146,-0.00915527,0.0129883,
4148,0.0146484,0.013031,
4150,-0.00549316,0.0130371,
4152,-0.0415039,0.0133606,
4154,-0.0280762,0.013623,
4156,0.0109863,0.013678,
4158,-0.0195313,0.013739,
4160,-0.0170898,0.0138428,
4162,-0.022583,0.0139832,
4164,0.00183105,0.0139404,
4166,-0.0231934,0.0140747,
4168,0.0140381,0.014093,
4170,0.0311279,0.01427,
4172,-0.00854492,0.0141296,
4174,-0.0012207,0.0140198,
4176,0.00671387,0.013678,
4178,-0.0195313,0.0135803,
4180,0.00671387,0.0134949,
4182,-0.0427246,0.0137085,
4184,-0.0170898,0.0135193,
4186,-0.0250244,0.0134521,
4188,-0.0250244,0.0135254,
4190,-0.0170898,0.0136658,
4192,-0.0372314,0.0137024,
4194,0.0177002,0.0136475,
4196,0.0115967,0.0137451,
4198,0.00366211,0.0134521,
4200,-0.00549316,0.0134827,
4202,-0.0427246,0.0135742,
4204,0.0323486,0.0138611,
4206,0.00488281,0.0137756,
4208,-0.012207,0.0137329,
4210,-0.0372314,0.0138733,
4212,-0.0146484,0.0140015,
4214,0.00305176,0.0139648,
4216,-0.0115967,0.0136658,
4218,-0.0158691,0.0138123,
4220,-0.0170898,0.0139465,
4222,0.0177002,0.0139648,
4224,0.0109863,0.0138916,
4226,-0.00732422,0.0137939,
4228,0.00427246,0.013739,
4230,-0.0128174,0.0137756,
4232,-0.0268555,0.0139648,
4234,-0.00366211,0.0138367,
4236,-0.00854492,0.0136597,
4238,-0.0140381,0.0137207,
4240,-0.0238037,0.0138855,
4242,-0.0238037,0.0140991,
4244,-0.0183105,0.0142334,
4246,0.00305176,0.014209,
4248,-0.00549316,0.0142273,
4250,0.0164795,0.0141846,
4252,-0.0183105,0.01427,
4254,-0.00915527,0.0141602,
4256,0.0195313,0.0142822,
4258,0.00915527,0.0143677,
4260,0.00366211,0.014386,
4262,-0.0415039,0.0145386,
4264,0.0244141,0.0145569,
4266,-0.00366211,0.0144409,
4268,-0.0201416,0.0145935,
4270,0.00427246,0.0146057,
4272,-0.0250244,0.0147644,
4274,-0.032959,0.0150085,
4276,0.00732422,0.0149963,
4278,-0.0115967,0.0150574,
4280,-0.00793457,0.0151062,
4282,-0.0012207,0.0149963,
4284,0.010376,0.0151001,
4286,-0.00305176,0.0150208,
4288,-0.0341797,0.0152283,
4290,-0.00854492,0.0151733,
4292,0.0170898,0.015271,
4294,-0.0268555,0.0154724,
4296,-0.00976563,0.0155273,
4298,-0.0286865,0.0157471,
4300,-0.0115967,0.015802,
4302,-0.0183105,0.0159119,
4304,0.00183105,0.0157043,
4306,0.00610352,0.0156738,
4308,-0.0238037,0.0156921,
4310,-0.00793457,0.0156738,
4312,-0.00366211,0.0156982,
4314,-0.00305176,0.0153748,
4316,0.00793457,0.0154297,
4318,-0.022583,0.0155579,
4320,0.00549316,0.0155518,
4322,0.00427246,0.0155884,
4324,-0.00244141,0.0153931,
4326,-0.0109863,0.0154602,
4328,0.00671387,0.0153381,
4330,-0.00915527,0.0153625,
4332,-0.00793457,0.015155,
4334,0.020752,0.0153259,
4336,-0.00427246,0.0148926,
4338,-0.0311279,0.0150391,
4340,0.0152588,0.0151611,
4342,-0.0012207,0.0149414,
4344,0,0.0147827,
4346,-0.020752,0.0148987,
4348,-0.0280762,0.015033,
4350,-0.012207,0.0151001,
4352,-0.00671387,0.0147522,
4354,-0.0140381,0.0146118,
4356,-0.0201416,0.0147034,
4358,-0.0115967,0.014624,
4360,-0.00366211,0.0144897,
4362,0.0140381,0.0144043,
4364,-0.0195313,0.0145813,
4366,-0.0134277,0.0144836,
4368,0.0109863,0.0144531,
4370,-0.00488281,0.0141907,
4372,-0.0115967,0.0142212,
4374,-0.020752,0.0144165,
4376,-0.0189209,0.0145386,
4378,-0.00488281,0.0143921,
4380,0.00854492,0.0144104,
4382,-0.0299072,0.0142822,
4384,0.00366211,0.0141479,
4386,-0.000610352,0.0139038,
4388,-0.00244141,0.013678,
4390,0.00854492,0.0135925,
4392,-0.0317383,0.0135376,
4394,0.00183105,0.0133789,
4396,-0.0012207,0.0132751,
4398,-0.00793457,0.0133179,
4400,0.00854492,0.0133484,
4402,-0.0213623,0.0131348,
4404,-0.00549316,0.0128662,
4406,0.00671387,0.0128845,
4408,-0.00366211,0.0127991,
4410,-0.00244141,0.0124512,
4412,-0.00854492,0.0123901,
4414,-0.00976563,0.0124573,
4416,-0.00793457,0.0124207,
4418,-0.0109863,0.0123718,
4420,-0.00427246,0.0122437,
4422,-0.00305176,0.0120972,
4424,-0.0195313,0.0121826,
4426,0.00366211,0.012146,
4428,0.00366211,0.0121399,
4430,0.00793457,0.0120911,
4432,0.00610352,0.0118835,
4434,-0.022583,0.0120728,
4436,0.00732422,0.0120605,
4438,0.0128174,0.0120483,
4440,0.00671387,0.0118774,
4442,-0.00366211,0.011676,
4444,-0.0341797,0.0118347,
4446,0.0109863,0.0119141,
4448,-0.012207,0.0119812,
4450,-0.0128174,0.0119446,
4452,-0.0177002,0.0119385,
4454,-0.0134277,0.0119812,
4456,-0.00671387,0.011853,
4458,-0.0158691,0.0119202,
4460,0.0134277,0.0120178,
4462,-0.012207,0.0117249,
4464,-0.00732422,0.011554,
4466,0.0189209,0.0117065,
4468,0.0219727,0.0117249,
4470,0.0109863,0.011792,
4472,-0.0262451,0.0118042,
4474,-0.00183105,0.0114929,
4476,-0.0170898,0.0115906,
4478,0.010376,0.0115784,
4480,-0.0109863,0.0116089,
4482,-0.0183105,0.0117798,
4484,-0.00854492,0.0117615,
4486,-0.0164795,0.0118958,
4488,-0.010376,0.0116577,
4490,0.0128174,0.0117004,
4492,-0.0299072,0.0118286,
4494,-0.00793457,0.0116394,
4496,0.00183105,0.0115601,
4498,0.0012207,0.0112854,
4500,-0.0128174,0.0112976,
4502,0,0.0111145,
4504,-0.0115967,0.0112122,
4506,0.0134277,0.0112854,
4508,-0.010376,0.0111511,
4510,0.00549316,0.0111267,
4512,0.0140381,0.0112305,
4514,0.000610352,0.0112061,
4516,-0.0109863,0.0112366,
4518,-0.0195313,0.0112061,
4520,-0.00732422,0.0112244,
4522,0.00854492,0.0112671,
4524,-0.00183105,0.011261,
4526,-0.0262451,0.0114136,
4528,0.0012207,0.0113586,
4530,0.00427246,0.0113098,
4532,-0.0274658,0.0115051,
4534,-0.0201416,0.011499,
4536,-0.00793457,0.0115356,
4538,-0.00915527,0.0113159,
4540,-0.00183105,0.0111816,
4542,-0.0115967,0.0112854,
4544,0.000610352,0.0112915,
4546,-0.00854492,0.0111694,
4548,-0.0164795,0.0110535,
4550,-0.00183105,0.0109497,
4552,0.00488281,0.0109314,
4554,0.00183105,0.0108093,
4556,0.00183105,0.0106262,
4558,0.0231934,0.0107422,
4560,-0.0238037,0.0109436,
4562,-0.00427246,0.0108459,
4564,-0.00549316,0.0107056,
4566,0.0183105,0.0107544,
4568,-0.000610352,0.0106506,
4570,-0.0213623,0.0108154,
4572,-0.00366211,0.0107361,
4574,-0.00244141,0.010553,
4576,0.00671387,0.0104309,
4578,-0.0152588,0.0105347,
4580,-0.000610352,0.0104553,
4582,-0.0170898,0.0103271,
4584,-0.00488281,0.0103394,
4586,-0.0164795,0.010498,
4588,-0.00427246,0.0105164,
4590,-0.00610352,0.0104919,
4592,-0.00671387,0.0102417,
4594,0,0.0102234,
4596,-0.0201416,0.0104126,
4598,0.0146484,0.0104797,
4600,0.00366211,0.0104309,
4602,0.00427246,0.01026,
4604,-0.0109863,0.0103149,
4606,-0.00305176,0.0102783,
4608,0.0262451,0.0105042,
4610,0.0128174,0.0106079,
4612,0.00366211,0.0105591,
4614,-0.0140381,0.0106018,
4616,0.00976563,0.0106201,
4618,0.00244141,0.0105347,
4620,-0.00671387,0.0105591,
4622,-0.022583,0.0107544,
4624,-0.0292969,0.0108521,
4626,-0.00366211,0.0108521,
4628,0.000610352,0.0108215,
4630,-0.0274658,0.0110168,
4632,-0.0299072,0.0112549,
4634,-0.0134277,0.0111633,
4636,-0.00488281,0.0111389,
4638,-0.00671387,0.0110779,
4640,-0.0146484,0.0111572,
4642,-0.020752,0.0113281,
4644,-0.0115967,0.0111023,
4646,0.0158691,0.0111511,
4648,-0.00183105,0.0110474,
4650,-0.00671387,0.0109863,
4652,-0.0140381,0.0109497,
4654,-0.0012207,0.0108276,
4656,0.00366211,0.0107971,
4658,-0.000610352,0.0106445,
4660,-0.0134277,0.0106445,
4662,0.00427246,0.0105652,
4664,-0.0213623,0.0107056,
4666,-0.00244141,0.0105408,
4668,-0.00671387,0.0103882,
4670,0.0109863,0.0103882,
4672,-0.00488281,0.0101746,
4674,-0.00427246,0.010199,
4676,0,0.0100281,
4678,0.00305176,0.00995483,
4680,-0.0012207,0.00985718,
4682,-0.00549316,0.009729,
4684,-0.0170898,0.00981445,
4686,0.00671387,0.0097168,
4688,-0.00610352,0.00967407,
4690,-0.00549316,0.00960083,
4692,-0.0189209,0.00949097,
4694,0.0012207,0.00942383,
4696,0.020752,0.00961304,
4698,-0.03479,0.00994873,
4700,0.00915527,0.00991211,
4702,-0.000610352,0.00991821,
4704,-0.0140381,0.00994263,
4706,-0.0213623,0.010022,
4708,-0.00915527,0.0100098,
4710,-0.0115967,0.0100708,
4712,-0.00549316,0.00998535,
4714,-0.0140381,0.0101196,
4716,0.00366211,0.0100464,
4718,0.00488281,0.0098999,
4720,0.00610352,0.0098877,
4722,-0.0128174,0.00993042,
4724,-0.00732422,0.00998535,
4726,-0.0012207,0.00973511,
4728,-0.0109863,0.00983276,
4730,-0.0115967,0.00990601,
4732,-0.00732422,0.00970459,
4734,0.00671387,0.00957031,
4736,0.0177002,0.00966797,
4738,0.0170898,0.00974731,
4740,-0.0189209,0.00991821,
4742,0.00488281,0.00985107,
4744,0.012207,0.00996704,
4746,-0.0177002,0.0100586,
4748,-0.0183105,0.0100769,
4750,-0.0299072,0.0103577,
4752,-0.032959,0.0106384,
4754,-0.0115967,0.0107361,
4756,-0.00793457,0.0107971,
4758,-0.0177002,0.0107422,
4760,-0.00915527,0.0105957,
4762,-0.00305176,0.0105835,
4764,-0.00976563,0.0106262,
4766,-0.00305176,0.0104736,
4768,-0.00793457,0.0105469,
4770,-0.0115967,0.0104492,
4772,-0.0152588,0.0105652,
4774,-0.00732422,0.010614,
4776,-0.00610352,0.0106079,
4778,0.000610352,0.0104614,
4780,0.0128174,0.0105835,
4782,-0.0213623,0.0106262,
4784,0.00793457,0.0106567,
4786,0.020752,0.0106995,
4788,-0.00427246,0.0106995,
4790,-0.00915527,0.01073,
4792,-0.010376,0.0107666,
4794,0.00549316,0.0108215,
4796,0.00976563,0.0107178,
4798,-0.0152588,0.0107239,
4800,-0.00976563,0.0107849,
4802,-0.00305176,0.0107727,
4804,-0.0134277,0.0107971,
4806,-0.00610352,0.0108276,
4808,-0.00976563,0.0106628,
4810,-0.0146484,0.0106812,
4812,-0.0012207,0.0106567,
4814,0.012207,0.0106384,
4816,-0.00366211,0.0105774,
4818,-0.000610352,0.0105591,
4820,-0.0262451,0.0107544,
4822,0.0354004,0.0108826,
4824,-0.00793457,0.0106689,
4826,-0.00366211,0.0106689,
4828,-0.00488281,0.0107117,
4830,-0.0134277,0.0105713,
4832,-0.0201416,0.0104736,
4834,-0.010376,0.0104431,
4836,-0.00244141,0.0104187,
4838,-0.0195313,0.0105469,
4840,-0.00793457,0.0104797,
4842,-0.0177002,0.0104492,
4844,-0.00854492,0.0104187,
4846,0.00366211,0.0102966,
4848,0.00793457,0.0103577,
4850,0.00305176,0.010321,
4852,0.020752,0.0103882,
4854,0.012207,0.010498,
4856,-0.000610352,0.0104675,
4858,-0.0115967,0.0105774,
4860,0,0.0104431,
4862,-0.00793457,0.0104797,
4864,-0.000610352,0.0102722,
4866,-0.0213623,0.0104614,
4868,-0.0292969,0.0106873,
4870,-0.0152588,0.01073,
4872,0.00488281,0.01073,
4874,0.00183105,0.0107056,
4876,-0.0134277,0.0108398,
4878,-0.00549316,0.0108643,
4880,0.00732422,0.0109253,
4882,0,0.0108704,
4884,-0.0335693,0.0110352,
4886,-0.00244141,0.0109924,
4888,-0.00183105,0.0109497,
4890,-0.0158691,0.0110535,
4892,-0.0158691,0.0110229,
4894,-0.0012207,0.0110229,
4896,0.00183105,0.0108337,
4898,-0.0183105,0.0106689,
4900,-0.0183105,0.0107605,
4902,-0.0134277,0.0108887,
4904,0.00732422,0.0108215,
4906,0.000610352,0.010614,
4908,-0.0213623,0.0107361,
4910,-0.00427246,0.0106628,
4912,-0.00488281,0.0106567,
4914,0.0140381,0.0106567,
4916,-0.00793457,0.0106995,
4918,-0.00854492,0.0107361,
4920,-0.00793457,0.0107544,
4922,0.0012207,0.0106384,
4924,-0.0195313,0.0107605,
4926,-0.0164795,0.0109131,
4928,-0.0115967,0.0109192,
4930,0.00366211,0.0108398,
4932,0.0012207,0.0107788,
4934,-0.00915527,0.0108032,
4936,-0.00732422,0.0106995,
4938,0.00427246,0.0105713,
4940,0.000610352,0.0103882,
4942,0.00976563,0.010437,
4944,-0.0128174,0.0104431,
4946,-0.0195313,0.0104614,
4948,-0.0158691,0.010437,
4950,0.00549316,0.0101929,
4952,-0.00732422,0.00993652,
4954,-0.0152588,0.00997314,
4956,-0.00488281,0.00994263,
4958,-0.0183105,0.00994873,
4960,-0.00427246,0.0098999,
4962,-0.00915527,0.00996094,
4964,-0.00915527,0.00995483,
4966,-0.010376,0.0100281,
4968,0.00976563,0.0100464,
4970,-0.0244141,0.0101746,
4972,-0.00610352,0.010083,
4974,0.00671387,0.0100769,
4976,-0.00305176,0.0100464,
4978,0.00305176,0.0100708,
4980,-0.0134277,0.0100769,
4982,-0.012207,0.00998535,
4984,-0.00488281,0.00995483,
4986,0.010376,0.00985107,
4988,-0.00549316,0.00986328,
4990,-0.00854492,0.00985718,
4992,0.00976563,0.00985107,
4994,0.00244141,0.00982056,
4996,-0.0109863,0.00983276,
4998,-0.00244141,0.00970459,
5000,-0.00244141,0.00963135,
5002,-0.00915527,0.00969238,
5004,0.00854492,0.00964355,
5006,0.0012207,0.00959473,
5008,-0.0244141,0.00974121,
5010,-0.00183105,0.00961304,
5012,-0.0134277,0.00973511,
5014,-0.000610352,0.00961914,
5016,-0.00671387,0.00964966,
5018,-0.00305176,0.00967407,
5020,-0.0177002,0.00958862,
5022,-0.0201416,0.00943604,
5024,-0.00488281,0.00940552,
5026,-0.010376,0.00947266,
5028,0.00244141,0.00944824,
5030,-0.000610352,0.00932007,
5032,0.0012207,0.00913086,
5034,-0.00732422,0.00910034,
5036,-0.00854492,0.00916138,
5038,0.0195313,0.00916138,
5040,0.00427246,0.00912476,
5042,-0.00427246,0.00899048,
5044,0.00305176,0.00893555,
5046,0.010376,0.00900269,
5048,-0.00976563,0.009021,
5050,-0.0164795,0.00915527,
5052,-0.00183105,0.00896606,
5054,-0.0115967,0.00895996,
5056,-0.020752,0.00916138,
5058,-0.0286865,0.00933228,
5060,-0.00366211,0.0093689,
5062,-0.00610352,0.00935059,
5064,-0.00183105,0.00936279,
5066,-0.0115967,0.00926514,
5068,0.0012207,0.00898438,
5070,-0.00244141,0.0088562,
5072,-0.00244141,0.00883179,
5074,-0.012207,0.00893555,
5076,0.0012207,0.00881348,
5078,-0.00732422,0.00883179,
5080,0.0012207,0.00877075,
5082,-0.0311279,0.00908203,
5084,0.0012207,0.00875854,
5086,0.0012207,0.00874634,
5088,-0.0170898,0.00889893,
5090,-0.0115967,0.0088562,
5092,-0.0170898,0.00886841,
5094,0.00305176,0.00888672,
5096,-0.00793457,0.00894775,
5098,-0.022583,0.00899048,
5100,0.00732422,0.00888062,
5102,0.0158691,0.00890503,
5104,-0.00915527,0.00892334,
5106,-0.00549316,0.00897217,
5108,0,0.00875854,
5110,0.0177002,0.00889282,
5112,-0.00366211,0.00888062,
5114,0.00915527,0.00883179,
5116,-0.0012207,0.00876465,
5118,-0.0012207,0.00869141,
5120,-0.0109863,0.00872192,
5122,-0.00671387,0.00877686,
5124,-0.00915527,0.0086731,
5126,-0.0115967,0.00862427,
5128,-0.00183105,0.00852661,
5130,-0.0170898,0.00866089,
5132,-0.0262451,0.00891113,
5134,-0.00854492,0.00890503,
5136,-0.00610352,0.00889282,
5138,-0.0115967,0.00896606,
5140,0.00488281,0.00900879,
5142,0.000610352,0.00891724,
5144,-0.0158691,0.00894775,
5146,-0.00671387,0.00881958,
5148,-0.0128174,0.00878906,
5150,0.0109863,0.00884399,
5152,0.00244141,0.00879517,
5154,0.0012207,0.00865479,
5156,-0.0238037,0.00884399,
5158,-0.000610352,0.00866699,
5160,0.000610352,0.00863037,
5162,0.00549316,0.00859375,
5164,-0.00244141,0.00852661,
5166,-0.000610352,0.00842896,
5168,-0.00366211,0.00836792,
5170,-0.0177002,0.00830078,
5172,-0.00244141,0.00826416,
5174,-0.00793457,0.00827637,
5176,-0.00915527,0.0083374,
5178,0.00366211,0.00834351,
5180,0.00244141,0.00823364,
5182,0.0231934,0.00834351,
5184,-0.0299072,0.00859375,
5186,0.00610352,0.00855103,
5188,0.00671387,0.00856323,
5190,-0.0012207,0.00848999,
5192,-0.0158691,0.00855103,
5194,-0.0128174,0.00865479,
5196,-0.022583,0.00877075,
5198,-0.0152588,0.00889893,
5200,0.00427246,0.00891724,
5202,0.00610352,0.00888672,
5204,-0.0109863,0.00891113,
5206,-0.00488281,0.00894775,
5208,-0.0012207,0.00871582,
5210,0.00549316,0.00875244,
5212,0.00366211,0.00865479,
5214,-0.00854492,0.00873413,
5216,-0.00366211,0.00870361,
5218,-0.0152588,0.00882568,
5220,0.00549316,0.00870361,
5222,-0.0128174,0.00863037,
5224,0.00610352,0.00864258,
5226,-0.000610352,0.00854492,
5228,-0.00488281,0.00856934,
5230,-0.00183105,0.00858154,
5232,-0.00671387,0.00863647,
5234,-0.00183105,0.00858154,
5236,0.000610352,0.0085022,
5238,-0.00183105,0.0083252,
5240,-0.0012207,0.00829468,
5242,-0.0152588,0.00840454,
5244,-0.00427246,0.00841675,
5246,-0.0109863,0.00842285,
5248,-0.012207,0.00844727,
5250,-0.00427246,0.0083252,
5252,-0.00854492,0.00839233,
5254,0.00915527,0.00836792,
5256,-0.00488281,0.00820923,
5258,-0.0360107,0.00828247,
5260,0.00671387,0.00831299,
5262,-0.00183105,0.00827026,
5264,-0.00793457,0.0083313,
5266,-0.010376,0.00831909,
5268,-0.0109863,0.00841675,
5270,-0.00366211,0.00842896,
5272,-0.012207,0.00852661,
5274,-0.00854492,0.00848999,
5276,-0.00732422,0.00855103,
5278,0.00427246,0.00852051,
5280,0.000610352,0.0085144,
5282,0.00366211,0.00823975,
5284,-0.00854492,0.00831299,
5286,-0.00366211,0.0083374,
5288,0.010376,0.00827026,
5290,0.0134277,0.00828857,
5292,-0.00976563,0.00821533,
5294,-0.0140381,0.0083252,
5296,-0.00488281,0.00829468,
5298,-0.00732422,0.00814209,
5300,-0.000610352,0.00807495,
5302,-0.0164795,0.00808105,
5304,-0.0115967,0.00810547,
5306,0.00427246,0.00809326,
5308,-0.0134277,0.00822754,
5310,-0.0146484,0.00819702,
5312,0.00976563,0.00825806,
5314,-0.00427246,0.00820923,
5316,-0.0183105,0.00838013,
5318,-0.00671387,0.00843506,
5320,-0.00244141,0.00834961,
5322,-0.00183105,0.00830078,
5324,-0.00549316,0.00826416,
5326,0.00366211,0.00818481,
5328,0.00976563,0.00826416,
5330,-0.012207,0.00821533,
5332,-0.00549316,0.00800781,
5334,0.00732422,0.00799561,
5336,0.0146484,0.00808105,
5338,-0.0170898,0.00813599,
5340,-0.00854492,0.00817261,
5342,-0.0115967,0.00828247,
5344,-0.0128174,0.00825195,
5346,-0.00793457,0.00826416,
5348,-0.0170898,0.00830688,
5350,0.0140381,0.0083374,
5352,-0.0238037,0.00855103,
5354,-0.0244141,0.00878296,
5356,0.00183105,0.00856323,
5358,0.000610352,0.00856323,
5360,-0.00671387,0.00862427,
5362,-0.00244141,0.00859375,
5364,0.00427246,0.00861206,
5366,0.0146484,0.00875244,
5368,0.00549316,0.00877075,
5370,-0.0183105,0.00877686,
5372,0.010376,0.0088562,
5374,-0.0152588,0.00892944,
5376,-0.0146484,0.00898438,
5378,-0.0012207,0.00895996,
5380,-0.020752,0.00914307,
5382,-0.0262451,0.00917358,
5384,-0.00793457,0.00895386,
5386,-0.0256348,0.00914917,
5388,-0.00488281,0.00913086,
5390,-0.00183105,0.00913696,
5392,-0.0177002,0.00915527,
5394,-0.00915527,0.00911865,
5396,0.00366211,0.00892944,
5398,-0.0170898,0.00894775,
5400,-0.00976563,0.00900269,
5402,-0.0012207,0.00895386,
5404,-0.0012207,0.0088562,
5406,-0.0201416,0.00900879,
5408,0.0146484,0.00914307,
5410,-0.00793457,0.00916748,
5412,-0.0177002,0.00930786,
5414,-0.00610352,0.00928345,
5416,-0.00244141,0.00927124,
5418,-0.00854492,0.0092041,
5420,-0.0115967,0.00926514,
5422,-0.0115967,0.00925293,
5424,-0.0012207,0.0092041,
5426,0.0115967,0.00931396,
5428,-0.00427246,0.00930786,
5430,0,0.00928955,
5432,0.0140381,0.00936279,
5434,0.0012207,0.00935669,
5436,0.00671387,0.00941772,
5438,-0.00366211,0.00943604,
5440,0.00549316,0.00947876,
5442,-0.00671387,0.00939331,
5444,0.000610352,0.00935669,
5446,-0.0170898,0.00941772,
5448,-0.0219727,0.00951538,
5450,-0.000610352,0.00947876,
5452,-0.010376,0.00949707,
5454,0.00915527,0.00949707,
5456,-0.0366211,0.00981445,
5458,-0.020752,0.00966187,
5460,-0.000610352,0.00960083,
5462,-0.00488281,0.00963135,
5464,-0.0146484,0.00969849,
5466,-0.00549316,0.00964966,
5468,-0.00854492,0.00962524,
5470,-0.00549316,0.00964355,
5472,-0.0012207,0.00953369,
5474,-0.00671387,0.00951538,
5476,0.00305176,0.00947266,
5478,-0.00427246,0.00947266,
5480,0.00549316,0.00952148,
5482,-0.0201416,0.00968628,
5484,-0.0134277,0.00973511,
5486,-0.000610352,0.00970459,
5488,-0.00854492,0.00968628,
5490,-0.00366211,0.00958862,
5492,-0.00915527,0.00958252,
5494,-0.00244141,0.00946655,
5496,-0.0115967,0.00953369,
5498,-0.0012207,0.00947266,
5500,0.0201416,0.00966797,
5502,0.0213623,0.0097168,
5504,-0.0140381,0.00974121,
5506,-0.00671387,0.00976563,
5508,0.00244141,0.00965576,
5510,-0.00976563,0.00960693,
5512,-0.00305176,0.00953979,
5514,-0.00671387,0.00956421,
5516,-0.0177002,0.00955811,
5518,-0.0256348,0.00974731,
5520,-0.0134277,0.00985718,
5522,0.00244141,0.00986328,
5524,-0.022583,0.0100342,
5526,-0.0012207,0.0100098,
5528,0.00366211,0.00994873,
5530,-0.00244141,0.00985107,
5532,-0.00610352,0.00985718,
5534,-0.00305176,0.00981445,
5536,0.00549316,0.0097229,
5538,0.00610352,0.00961304,
5540,0.00488281,0.00957642,
5542,0.012207,0.00958252,
5544,0,0.00945435,
5546,-0.0146484,0.00952148,
5548,0.010376,0.00945435,
5550,0.00488281,0.00936279,
5552,-0.00488281,0.00917358,
5554,-0.00610352,0.00899048,
5556,-0.0140381,0.00911255,
5558,-0.0170898,0.00927734,
5560,-0.00610352,0.00927124,
5562,-0.0012207,0.00925903,
5564,-0.0146484,0.00936279,
5566,0.00244141,0.00924072,
5568,-0.0109863,0.00929565,
5570,-0.00671387,0.00917969,
5572,0.00244141,0.00910034,
5574,0.0158691,0.00910645,
5576,-0.0146484,0.00910645,
5578,-0.00366211,0.00913086,
5580,0.00244141,0.00894775,
5582,0.0177002,0.0088623,
5584,-0.00732422,0.0088562,
5586,-0.00671387,0.00866699,
5588,-0.000610352,0.00862427,
5590,-0.00183105,0.00862427,
5592,-0.00488281,0.00849609,
5594,-0.0012207,0.00841675,
5596,-0.0115967,0.00849609,
5598,-0.012207,0.00844727,
5600,-0.00549316,0.00840454,
5602,-0.00305176,0.00842285,
5604,0.00183105,0.00842896,
5606,-0.010376,0.0083313,
5608,0,0.00818481,
5610,0.0201416,0.00830688,
5612,-0.0268555,0.00839844,
5614,0.0164795,0.0085022,
5616,0.00610352,0.00853882,
5618,-0.00732422,0.00852661,
5620,0.00183105,0.00842896,
5622,-0.00854492,0.00839844,
5624,0,0.00838623,
5626,0.00305176,0.00830078,
5628,-0.0012207,0.00827026,
5630,-0.0158691,0.00842896,
5632,-0.012207,0.00841064,
5634,0.00244141,0.00842285,
5636,-0.00610352,0.00841675,
5638,-0.0115967,0.00849609,
5640,-0.0177002,0.00861816,
5642,-0.00671387,0.00861816,
5644,0.0012207,0.00862427,
5646,-0.0164795,0.00861816,
5648,-0.012207,0.00852051,
5650,0.00854492,0.00859985,
5652,-0.00610352,0.00855713,
5654,-0.00915527,0.00855713,
5656,-0.00183105,0.00820923,
5658,0.0012207,0.00801392,
5660,0.0305176,0.00831299,
5662,-0.0213623,0.00847778,
5664,0.00671387,0.00839844,
5666,-0.00305176,0.00837402,
5668,-0.00488281,0.0083374,
5670,0.00915527,0.00837402,
5672,-0.0012207,0.00837402,
5674,-0.00244141,0.0083313,
5676,-0.0140381,0.00844116,
5678,-0.0140381,0.00853882,
5680,0.00305176,0.0085144,
5682,0,0.00831299,
5684,0.0238037,0.00841675,
5686,-0.00854492,0.00849609,
5688,-0.010376,0.0085144,
5690,-0.0109863,0.00858765,
5692,-0.0012207,0.0085083,
5694,0.0244141,0.00872803,
5696,-0.00732422,0.0086853,
5698,-0.0512695,0.00918579,
5700,-0.00549316,0.00903931,
5702,-0.00610352,0.00888672,
5704,-0.0164795,0.00891113,
5706,-0.0177002,0.009021,
5708,-0.0140381,0.00913696,
5710,-0.00793457,0.00911865,
5712,0.000610352,0.00909424,
5714,-0.00244141,0.00905151,
5716,-0.000610352,0.00888062,
5718,-0.0164795,0.00878906,
5720,-0.00366211,0.00869141,
5722,0.000610352,0.0086731,
5724,-0.0128174,0.00857544,
5726,-0.0280762,0.00884399,
5728,-0.0115967,0.00892334,
5730,-0.00976563,0.00899658,
5732,0.00732422,0.00900879,
5734,-0.0238037,0.00921631,
5736,0.000610352,0.00916748,
5738,0.00366211,0.00914307,
5740,0.00427246,0.00913696,
5742,-0.0134277,0.00914917,
5744,0.00305176,0.00917969,
5746,0.00610352,0.00909424,
5748,-0.0213623,0.0092041,
5750,0.00183105,0.00917358,
5752,-0.00305176,0.00915527,
5754,-0.00610352,0.00915527,
5756,-0.0201416,0.00921631,
5758,0.00183105,0.00906372,
5760,-0.00244141,0.0090271,
5762,-0.00244141,0.00903931,
5764,-0.0158691,0.00905151,
5766,-0.00976563,0.00912476,
5768,-0.0012207,0.0090271,
5770,0.000610352,0.00896606,
5772,-0.00732422,0.00901489,
5774,-0.00915527,0.00894775,
5776,-0.00366211,0.00883789,
5778,-0.010376,0.00890503,
5780,-0.00610352,0.00894165,
5782,0.00366211,0.00880127,
5784,-0.0158691,0.00888672,
5786,-0.0164795,0.00898438,
5788,-0.00305176,0.00900879,
5790,-0.00732422,0.00906372,
5792,-0.00610352,0.00907593,
5794,0.00549316,0.00911865,
5796,-0.0115967,0.00911865,
5798,-0.00427246,0.00903931,
5800,0.0189209,0.00917358,
5802,0.0152588,0.00929565,
5804,-0.00183105,0.00929565,
5806,0.00793457,0.00927124,
5808,-0.0213623,0.00948486,
5810,-0.00183105,0.00930176,
5812,0.00305176,0.00906372,
5814,-0.020752,0.00910645,
5816,-0.0134277,0.00917969,
5818,-0.00854492,0.00919189,
5820,-0.00366211,0.00921021,
5822,0.00427246,0.00916748,
5824,-0.00610352,0.00922852,
5826,0,0.009198,
5828,-0.000610352,0.00919189,
5830,0.0012207,0.00904541,
5832,-0.00610352,0.00898438,
5834,-0.00671387,0.0090271,
5836,-0.010376,0.00906982,
5838,-0.0183105,0.00913696,
5840,-0.000610352,0.00896606,
5842,-0.00488281,0.00894775,
5844,-0.010376,0.00903931,
5846,-0.00244141,0.00889893,
5848,-0.00671387,0.00884399,
5850,-0.00549316,0.00881348,
5852,-0.0012207,0.00876465,
5854,0.00549316,0.00872803,
5856,-0.00305176,0.00874023,
5858,0,0.00872803,
5860,0.0109863,0.00853271,
5862,-0.00244141,0.00834351,
5864,-0.00488281,0.0083252,
5866,0.0250244,0.00854492,
5868,0.00305176,0.00852661,
5870,-0.000610352,0.00844116,
5872,-0.00610352,0.00848999,
5874,-0.00732422,0.00853882,
5876,0.00366211,0.00843506,
5878,0.00183105,0.00831299,
5880,-0.0152588,0.00843506,
5882,-0.0158691,0.00859375,
5884,-0.00854492,0.00844116,
5886,-0.00244141,0.00838013,
5888,0.0012207,0.00828857,
5890,0.0012207,0.00819092,
5892,0.00244141,0.00820313,
5894,0.00427246,0.00800171,
5896,-0.00915527,0.00802002,
5898,-0.00244141,0.00753174,
5900,0.0109863,0.00758667,
5902,-0.00915527,0.00761719,
5904,-0.00427246,0.00749512,
5906,0.0012207,0.00733032,
5908,0,0.00718994,
5910,-0.000610352,0.0071167,
5912,-0.0164795,0.00727539,
5914,0.00610352,0.00731201,
5916,0.00976563,0.00740356,
5918,0.00610352,0.0072998,
5920,0.00427246,0.00730591,
5922,-0.00488281,0.00734863,
5924,-0.0177002,0.00739746,
5926,-0.00610352,0.00717773,
5928,-0.00366211,0.00709839,
5930,-0.010376,0.00710449,
5932,-0.0140381,0.00717163,
5934,0.000610352,0.0069397,
5936,-0.00366211,0.00697021,
5938,-0.00488281,0.00698242,
5940,0.0164795,0.00710449,
5942,-0.000610352,0.00697632,
5944,-0.00488281,0.00699463,
5946,0.00427246,0.00697632,
5948,-0.0183105,0.0069458,
5950,-0.0109863,0.00703735,
5952,-0.0250244,0.00725708,
5954,-0.0231934,0.00742798,
5956,-0.0219727,0.00744629,
5958,-0.0146484,0.00757446,
5960,-0.000610352,0.00755615,
5962,-0.00427246,0.00757446,
5964,0.00427246,0.0074585,
5966,-0.00244141,0.00738525,
5968,-0.00793457,0.00745239,
5970,0.00305176,0.00747681,
5972,-0.00488281,0.00745239,
5974,-0.00732422,0.00743408,
5976,0.000610352,0.00740356,
5978,0.0134277,0.00743408,
5980,0.0164795,0.00753784,
5982,-0.00183105,0.00751953,
5984,0.00183105,0.00737915,
5986,-0.00732422,0.0072876,
5988,0.00488281,0.00730591,
5990,0.00610352,0.0072937,
5992,-0.0360107,0.00759277,
5994,-0.0262451,0.00780029,
5996,-0.0256348,0.00794067,
5998,-0.0231934,0.00812988,
6000,-0.0183105,0.00812378,
6002,-0.0231934,0.00820313,
6004,-0.00915527,0.00827637,
6006,-0.00793457,0.00827637,
6008,-0.00915527,0.0081543,
6010,-0.00244141,0.0081604,
6012,0,0.00812988,
6014,0.00366211,0.00795898,
6016,0.0164795,0.0079895,
6018,0.00732422,0.00797729,
6020,0.0219727,0.0081604,
6022,-0.00183105,0.00813599,
6024,0.00366211,0.00811157,
6026,0.010376,0.00821533,
6028,0.00305176,0.00823975,
6030,-0.0128174,0.00835571,
6032,-0.0170898,0.00846558,
6034,-0.0213623,0.00861206,
6036,-0.0140381,0.00864868,
6038,-0.0195313,0.00866089,
6040,-0.0170898,0.00882568,
6042,-0.0115967,0.00889282,
6044,-0.00854492,0.00887451,
6046,-0.00610352,0.00891113,
6048,0.000610352,0.0088501,
6050,-0.000610352,0.00880127,
6052,-0.0177002,0.00896606,
6054,-0.00183105,0.00892944,
6056,-0.000610352,0.00890503,
6058,0.00244141,0.00892944,
6060,-0.010376,0.00892334,
6062,-0.00549316,0.00895386,
6064,-0.0195313,0.00910034,
6066,-0.000610352,0.0088562,
6068,0.00915527,0.00891724,
6070,-0.00976563,0.00900879,
6072,-0.0134277,0.00908203,
6074,-0.00305176,0.00903931,
6076,-0.0115967,0.00911865,
6078,-0.00549316,0.00915527,
6080,-0.00671387,0.00906982,
6082,-0.0115967,0.0090271,
6084,-0.00793457,0.009021,
6086,-0.00244141,0.009021,
6088,-0.0134277,0.00914307,
6090,-0.0134277,0.00926514,
6092,0.00305176,0.00927124,
6094,0.012207,0.00935059,
6096,0.0128174,0.00938721,
6098,-0.0012207,0.009375,
6100,-0.00732422,0.00933838,
6102,0.020752,0.00945435,
6104,0.00366211,0.00944824,
6106,-0.00976563,0.00953369,
6108,-0.0128174,0.00966187,
6110,0.012207,0.00977783,
6112,0.00732422,0.00968628,
6114,-0.0134277,0.00975952,
6116,-0.0335693,0.00999756,
6118,-0.00915527,0.0100281,
6120,-0.0128174,0.0101135,
6122,-0.00976563,0.0101624,
6124,-0.0152588,0.0101379,
6126,-0.0201416,0.0102783,
6128,-0.0115967,0.0103577,
6130,-0.0128174,0.0103821,
6132,-0.0146484,0.0103882,
6134,-0.00549316,0.010437,
6136,0.012207,0.0105225,
6138,0.00671387,0.0105408,
6140,0.0140381,0.0105164,
6142,-0.010376,0.010614,
6144,-0.00366211,0.0106018,
6146,-0.00549316,0.010614,
6148,-0.00549316,0.0104858,
6150,0,0.010376,
6152,-0.0177002,0.0103027,
6154,-0.0134277,0.0102051,
6156,-0.0152588,0.0101379,
6158,-0.0134277,0.0101257,
6160,0,0.0101196,
6162,0,0.0100769,
6164,-0.00183105,0.0100525,
6166,0.00610352,0.0100891,
6168,0,0.0100098,
6170,0.00854492,0.0100647,
6172,0.00732422,0.0100891,
6174,-0.000610352,0.010022,
6176,-0.0140381,0.0101563,
6178,0.0189209,0.0102112,
6180,-0.00244141,0.0100708,
6182,-0.00244141,0.0100769,
6184,-0.0146484,0.0102051,
6186,-0.0158691,0.0102905,
6188,-0.00305176,0.0102722,
6190,-0.00366211,0.0102478,
6192,-0.00854492,0.00997314,
6194,-0.00549316,0.00976563,
6196,-0.0109863,0.00961914,
6198,-0.00610352,0.00944824,
6200,-0.00976563,0.00936279,
6202,-0.00305176,0.00916138,
6204,0.00671387,0.00913696,
6206,-0.000610352,0.00906372,
6208,0.00366211,0.00900879,
6210,0.00305176,0.00901489,
6212,0.0195313,0.00921021,
6214,-0.0128174,0.00930176,
6216,-0.00488281,0.00918579,
6218,0.0140381,0.00925293,
6220,0.00427246,0.00907593,
6222,-0.0231934,0.00928955,
6224,-0.0274658,0.00952759,
6226,-0.0109863,0.00953369,
6228,-0.0134277,0.00963745,
6230,-0.00549316,0.00956421,
6232,-0.0177002,0.00957031,
6234,-0.00976563,0.00945435,
6236,-0.00732422,0.00938721,
6238,-0.00488281,0.00924072,
6240,-0.00305176,0.00910034,
6242,0.00427246,0.0090271,
6244,-0.00183105,0.00895996,
6246,-0.0256348,0.00915527,
6248,0.00183105,0.00916748,
6250,0.012207,0.00928345,
6252,0.0012207,0.00911865,
6254,-0.0152588,0.00925293,
6256,-0.00854492,0.00933228,
6258,0.00610352,0.0093689,
6260,0.00183105,0.00928345,
6262,-0.00854492,0.00931396,
6264,0.00915527,0.00921021,
6266,-0.0012207,0.00921631,
6268,-0.0177002,0.00930176,
6270,-0.00183105,0.00922241,
6272,0.0128174,0.00921631,
6274,-0.0109863,0.00929565,
6276,-0.00915527,0.00927124,
6278,0.00854492,0.00930176,
6280,-0.00549316,0.00928955,
6282,-0.000610352,0.00917969,
6284,0.00305176,0.00913086,
6286,-0.00366211,0.00914307,
6288,0.00305176,0.00903931,
6290,-0.022583,0.00913086,
6292,-0.00854492,0.00918579,
6294,-0.00549316,0.00911865,
6296,-0.0195313,0.00918579,
6298,-0.0231934,0.00940552,
6300,-0.0115967,0.00944824,
6302,-0.0134277,0.009375,
6304,-0.00610352,0.00939941,
6306,-0.0109863,0.00941162,
6308,-0.00793457,0.00936279,
6310,0.0115967,0.00935669,
6312,-0.000610352,0.00928955,
6314,-0.012207,0.00927734,
6316,-0.00488281,0.00899048,
6318,0.00305176,0.00892944,
6320,0.000610352,0.00880737,
6322,-0.00549316,0.00876465,
6324,-0.00976563,0.00870972,
6326,-0.00610352,0.00856934,
6328,0.0012207,0.00846558,
6330,-0.0128174,0.00846558,
6332,0.00976563,0.00841675,
6334,0,0.00836182,
6336,0.00793457,0.00831909,
6338,0.00366211,0.00828857,
6340,-0.0170898,0.00831909,
6342,-0.00549316,0.00827026,
6344,-0.0134277,0.00836792,
6346,-0.00793457,0.00839233,
6348,-0.0183105,0.00852051,
6350,-0.0195313,0.00871582,
6352,-0.020752,0.00874634,
6354,-0.0140381,0.00875244,
6356,-0.00549316,0.00865479,
6358,-0.00732422,0.00859375,
6360,0.000610352,0.00859985,
6362,-0.0109863,0.00870972,
6364,-0.00427246,0.00873413,
6366,0.00366211,0.00870972,
6368,-0.00549316,0.00876465,
6370,-0.0128174,0.00880737,
6372,-0.00793457,0.00881348,
6374,0.0140381,0.00894775,
6376,0.00671387,0.00887451,
6378,0.000610352,0.00869141,
6380,0.00854492,0.00875244,
6382,-0.00732422,0.00880127,
6384,0.0335693,0.00899048,
6386,0.00488281,0.00888062,
6388,0.00244141,0.00887451,
6390,-0.0140381,0.00897827,
6392,-0.0134277,0.0090271,
6394,0.012207,0.00909424,
6396,-0.0152588,0.00913696,
6398,-0.0213623,0.00928955,
6400,-0.0012207,0.0092041,
6402,-0.00854492,0.00925903,
6404,-0.0134277,0.00932617,
6406,-0.0012207,0.00933228,
6408,-0.010376,0.00939941,
6410,-0.00488281,0.00941772,
6412,-0.00305176,0.00925293,
6414,-0.0152588,0.00927734,
6416,-0.0012207,0.00924072,
6418,-0.0238037,0.00933838,
6420,-0.0134277,0.00942993,
6422,-0.00183105,0.00921631,
6424,-0.00732422,0.00901489,
6426,-0.00305176,0.00893555,
6428,-0.0128174,0.00892944,
6430,0.00549316,0.00892944,
6432,-0.00244141,0.00877686,
6434,-0.00183105,0.00869751,
6436,0.00549316,0.0086792,
6438,0.00671387,0.00869751,
6440,0.00610352,0.00872803,
6442,-0.0134277,0.00881958,
6444,0.00244141,0.00882568,
6446,-0.00183105,0.00858765,
6448,0.00305176,0.00859985,
6450,0.000610352,0.00848389,
6452,-0.0183105,0.00865479,
6454,-0.00488281,0.00855103,
6456,0.010376,0.00856934,
6458,-0.0134277,0.00864258,
6460,-0.0170898,0.00879517,
6462,0.00427246,0.00875244,
6464,-0.00610352,0.00872192,
6466,0,0.00870972,
6468,-0.00732422,0.00860596,
6470,0.00244141,0.00861206,
6472,-0.0115967,0.00859985,
6474,-0.00366211,0.00852661,
6476,0.0012207,0.00844727,
6478,-0.0152588,0.0085144,
6480,-0.00183105,0.00847778,
6482,-0.00183105,0.00848999,
6484,0.00976563,0.00855713,
6486,-0.0012207,0.00853271,
6488,-0.0128174,0.00863037,
6490,-0.00732422,0.00847778,
6492,-0.00732422,0.00846558,
6494,-0.00915527,0.0085022,
6496,-0.00427246,0.00834961,
6498,-0.0299072,0.00841675,
6500,-0.00976563,0.00839844,
6502,-0.0250244,0.0085144,
6504,-0.00488281,0.0085022,
6506,-0.00366211,0.00842896,
6508,-0.00366211,0.00838623,
6510,0,0.00827026,
6512,0.0158691,0.00842285,
6514,-0.00427246,0.00834351,
6516,0.00793457,0.00837402,
6518,-0.0140381,0.00848389,
6520,0.0183105,0.00866089,
6522,0,0.00860596,
6524,-0.0146484,0.00865479,
6526,-0.00793457,0.0086731,
6528,-0.0109863,0.00877075,
6530,0.000610352,0.00864868,
6532,-0.0170898,0.00872192,
6534,-0.00854492,0.00880737,
6536,0,0.00872803,
6538,-0.00488281,0.00874023,
6540,-0.00915527,0.00866089,
6542,-0.012207,0.00872803,
6544,-0.00976563,0.00869141,
6546,-0.00610352,0.0086731,
6548,-0.00793457,0.00856934,
6550,-0.0128174,0.0085022,
6552,-0.0134277,0.00842896,
6554,0,0.00828857,
6556,-0.00244141,0.00825806,
6558,-0.00488281,0.00823364,
6560,0.000610352,0.00823364,
6562,0,0.00812378,
6564,0.00427246,0.00812378,
6566,0.00366211,0.00812378,
6568,-0.0140381,0.00820923,
6570,0.000610352,0.00808716,
6572,0.00244141,0.00803223,
6574,-0.00366211,0.00792847,
6576,0.00488281,0.00791016,
6578,0.00915527,0.00799561,
6580,0.000610352,0.00791626,
6582,-0.00976563,0.00794067,
6584,-0.00732422,0.00767822,
6586,0.00793457,0.00770874,
6588,0.00305176,0.00771484,
6590,-0.0109863,0.00768433,
6592,-0.0134277,0.00768433,
6594,-0.00610352,0.00762329,
6596,-0.00488281,0.00751953,
6598,-0.0146484,0.00745239,
6600,-0.00366211,0.00747681,
6602,-0.00854492,0.00747681,
6604,-0.0012207,0.00735474,
6606,-0.00793457,0.00742187,
6608,-0.0158691,0.00747681,
6610,-0.000610352,0.00743408,
6612,0.00671387,0.0074707,
6614,-0.00976563,0.00741577,
6616,-0.00183105,0.00742187,
6618,-0.00732422,0.00725708,
6620,0.00610352,0.00718384,
6622,-0.00793457,0.00724487,
6624,-0.000610352,0.00717773,
6626,0.000610352,0.00715332,
6628,-0.00549316,0.00708008,
6630,-0.0115967,0.00714111,
6632,-0.00549316,0.00717163,
6634,-0.00183105,0.00717163,
6636,-0.0109863,0.00722656,
6638,-0.0134277,0.0072937,
6640,0.0128174,0.00736084,
6642,0.00488281,0.00727539,
6644,-0.0195313,0.00744629,
6646,-0.00183105,0.00744629,
6648,0.012207,0.00753784,
6650,-0.00244141,0.00755615,
6652,-0.0115967,0.00748901,
6654,-0.0012207,0.00745239,
6656,-0.0128174,0.00747681,
6658,-0.012207,0.0074646,
6660,-0.0109863,0.00740356,
6662,-0.0177002,0.00753784,
6664,-0.0170898,0.00764771,
6666,0,0.00764771,
6668,-0.012207,0.00769653,
6670,-0.00549316,0.00772705,
6672,-0.0109863,0.00772095,
6674,-0.012207,0.0078064,
6676,-0.00549316,0.00784912,
6678,-0.00854492,0.00778198,
6680,-0.00183105,0.00778198,
6682,0.00549316,0.0078186,
6684,-0.00305176,0.00775146,
6686,-0.0109863,0.00784912,
6688,-0.00976563,0.0078186,
6690,0.00366211,0.00778198,
6692,-0.00244141,0.00773315,
6694,-0.0109863,0.00775146,
6696,-0.0177002,0.00788574,
6698,-0.00610352,0.00764771,
6700,-0.00549316,0.00760498,
6702,-0.00244141,0.00737915,
6704,0.00549316,0.00738525,
6706,-0.00671387,0.00741577,
6708,-0.0164795,0.00754395,
6710,0.00549316,0.00759888,
6712,-0.00488281,0.00748901,
6714,-0.010376,0.00755005,
6716,-0.00488281,0.00751953,
6718,-0.0177002,0.00755615,
6720,-0.0177002,0.00755005,
6722,-0.00305176,0.00758057,
6724,-0.010376,0.00753784,
6726,0.0109863,0.00756836,
6728,0.00854492,0.00754395,
6730,0.00549316,0.00759277,
6732,-0.0140381,0.00756226,
6734,-0.000610352,0.00748291,
6736,0.0152588,0.0076355,
6738,0.00671387,0.00765381,
6740,-0.0146484,0.00770874,
6742,-0.0128174,0.00771484,
6744,-0.0115967,0.00773315,
6746,-0.00244141,0.00769653,
6748,-0.00549316,0.00767212,
6750,-0.00427246,0.00758667,
6752,-0.0115967,0.00756836,
6754,-0.00183105,0.00758667,
6756,0,0.00756226,
6758,-0.00549316,0.00756836,
6760,0.00244141,0.00758667,
6762,-0.00244141,0.00761108,
6764,-0.00976563,0.00766602,
6766,-0.0012207,0.0076416,
6768,-0.00671387,0.00756836,
6770,-0.00244141,0.00758667,
6772,-0.00793457,0.0076416,
6774,-0.0134277,0.00773926,
6776,0.00183105,0.00770874,
6778,-0.00244141,0.0076416,
6780,-0.000610352,0.0076416,
6782,0.00244141,0.00756836,
6784,-0.012207,0.00761719,
6786,-0.00915527,0.00762939,
6788,0.000610352,0.00760498,
6790,-0.00183105,0.00751343,
6792,-0.0164795,0.00754395,
6794,-0.010376,0.00758667,
6796,-0.000610352,0.00754395,
6798,-0.00366211,0.00743408,
6800,0.00915527,0.00748901,
6802,-0.00549316,0.0074585,
6804,-0.00915527,0.00753784,
6806,0.0012207,0.0074707,
6808,-0.00854492,0.00739746,
6810,-0.00488281,0.00744019,
6812,-0.00671387,0.00744019,
6814,0.0012207,0.00735474,
6816,0.00732422,0.00740967,
6818,-0.00549316,0.00739136,
6820,-0.0250244,0.00758057,
6822,0.0128174,0.00762939,
6824,0.00549316,0.00767822,
6826,0.000610352,0.00767822,
6828,-0.0231934,0.00785522,
6830,-0.00732422,0.0078125,
6832,0,0.00775757,
6834,-0.0128174,0.00786743,
6836,-0.00427246,0.00780029,
6838,-0.00549316,0.00772095,
6840,0.00305176,0.00762329,
6842,-0.00244141,0.00759888,
6844,-0.0115967,0.00751953,
6846,-0.00671387,0.00756836,
6848,-0.00732422,0.00751953,
6850,0.00366211,0.00753174,
6852,-0.00244141,0.00744019,
6854,-0.0158691,0.00758667,
6856,-0.00366211,0.00749512,
6858,-0.0170898,0.00754395,
6860,-0.00244141,0.0074585,
6862,0,0.00728149,
6864,-0.0183105,0.0072937,
6866,-0.00915527,0.00738525,
6868,-0.00793457,0.00734253,
6870,0.010376,0.00739136,
6872,-0.00549316,0.00733643,
6874,-0.0158691,0.00737305,
6876,-0.000610352,0.00732422,
6878,-0.00183105,0.00725708,
6880,-0.0128174,0.00736694,
6882,-0.0170898,0.00748291,
6884,-0.00488281,0.00750122,
6886,-0.0219727,0.00761108,
6888,-0.00854492,0.00759888,
6890,-0.0115967,0.00767822,
6892,-0.00305176,0.00768433,
6894,-0.00305176,0.00760498,
6896,-0.00366211,0.0074646,
6898,-0.00976563,0.00750122,
6900,-0.00671387,0.00751343,
6902,0.00610352,0.00755005,
6904,0.00305176,0.00752563,
6906,0.00915527,0.00755005,
6908,-0.0158691,0.00754395,
6910,-0.0183105,0.00767212,
6912,0.0164795,0.00778809,
6914,-0.00610352,0.00774536,
6916,-0.00915527,0.00778809,
6918,-0.010376,0.00771484,
6920,-0.0177002,0.00771484,
6922,-0.0128174,0.0078125,
6924,-0.00854492,0.00779419,
6926,-0.00549316,0.00773926,
6928,0.0012207,0.00766602,
6930,-0.00610352,0.00767212,
6932,-0.00976563,0.00762939,
6934,-0.010376,0.00772705,
6936,-0.0115967,0.00769043,
6938,-0.000610352,0.00762939,
6940,-0.010376,0.00758667,
6942,-0.00610352,0.00751953,
6944,-0.010376,0.00750732,
6946,-0.0177002,0.00765991,
6948,-0.00671387,0.00767212,
6950,-0.00427246,0.00767212,
6952,-0.00366211,0.00759277,
6954,-0.00183105,0.00759277,
6956,-0.00305176,0.00762329,
6958,-0.0152588,0.00772095,
6960,-0.00183105,0.00771484,
6962,0,0.00769043,
6964,0.00244141,0.00761719,
6966,-0.0109863,0.00771484,
6968,-0.00915527,0.00773926,
6970,-0.00305176,0.00774536,
6972,-0.00305176,0.00769653,
6974,-0.00793457,0.0076416,
6976,-0.00915527,0.00771484,
6978,0.00366211,0.00772705,
6980,0.00427246,0.00776367,
6982,0.00366211,0.00777588,
6984,0,0.00765381,
6986,-0.0140381,0.00770264,
6988,-0.00854492,0.00778198,
6990,0.0012207,0.00777588,
6992,-0.00915527,0.00770264,
6994,-0.00732422,0.00767212,
6996,-0.0146484,0.0078125,
6998,-0.0140381,0.00791626,
7000,-0.0201416,0.00802612,
7002,-0.0012207,0.0079834,
7004,0.00732422,0.00796509,
7006,-0.00854492,0.00803833,
7008,-0.00671387,0.00802002,
7010,0.000610352,0.00797729,
7012,0.00915527,0.00800171,
7014,-0.0177002,0.0081665,
7016,-0.0170898,0.00826416,
7018,-0.00183105,0.00822754,
7020,-0.012207,0.00809937,
7022,-0.010376,0.00807495,
7024,-0.00305176,0.00805054,
7026,-0.00488281,0.00809326,
7028,-0.0256348,0.00811768,
7030,-0.00732422,0.00811768,
7032,0.00244141,0.00814209,
7034,-0.00244141,0.00803833,
7036,-0.00854492,0.00808105,
7038,-0.0115967,0.00814209,
7040,-0.00915527,0.00820313,
7042,-0.00793457,0.00825806,
7044,-0.00732422,0.00821533,
7046,-0.0012207,0.0081604,
7048,-0.00915527,0.00817871,
7050,-0.000610352,0.00814819,
7052,-0.00427246,0.0081665,
7054,-0.00305176,0.00803833,
7056,0.00244141,0.00802612,
7058,-0.0012207,0.00786743,
7060,-0.00305176,0.00787354,
7062,0.00610352,0.00793457,
7064,-0.0012207,0.00776367,
7066,0,0.00767212,
7068,-0.00732422,0.00766602,
7070,0.000610352,0.00756836,
7072,-0.00610352,0.00757446,
7074,-0.00732422,0.00748901,
7076,-0.00610352,0.00754395,
7078,-0.00976563,0.00762329,
7080,-0.00488281,0.00754395,
7082,-0.00488281,0.00742187,
7084,-0.00244141,0.00739746,
7086,-0.00610352,0.00723877,
7088,-0.00671387,0.00722046,
7090,0.00244141,0.00712891,
7092,-0.0134277,0.00723267,
7094,-0.00793457,0.00728149,
7096,0,0.00724487,
7098,-0.00732422,0.00722046,
7100,-0.00488281,0.00720215,
7102,-0.00732422,0.00721436,
7104,-0.00244141,0.00720825,
7106,-0.012207,0.00723877,
7108,-0.00610352,0.00714111,
7110,-0.00854492,0.00704346,
7112,-0.012207,0.00700073,
7114,-0.00671387,0.00700684,
7116,-0.00671387,0.00698242,
7118,-0.00976563,0.00697632,
7120,-0.0109863,0.00690918,
7122,-0.0012207,0.00679321,
7124,-0.00549316,0.0067627,
7126,0.000610352,0.00671387,
7128,-0.00305176,0.00673218,
7130,-0.00488281,0.00671997,
7132,0.000610352,0.00662842,
7134,-0.0012207,0.00653687,
7136,0.00488281,0.00646973,
7138,-0.0012207,0.00647583,
7140,-0.00244141,0.00639648,
7142,-0.000610352,0.00634155,
7144,-0.00366211,0.00627441,
7146,-0.000610352,0.00610352,
7148,-0.00915527,0.00612793,
7150,-0.00671387,0.00615234,
7152,-0.00427246,0.00615845,
7154,-0.00671387,0.00620728,
7156,-0.00732422,0.00625,
7158,0.00305176,0.00612793,
7160,-0.00976563,0.00620728,
7162,-0.00732422,0.00628052,
7164,0.0134277,0.00639038,
7166,0.000610352,0.00628662,
7168,-0.0128174,0.00632324,
7170,-0.010376,0.00639648,
7172,0.00305176,0.00639648,
7174,-0.00488281,0.00636597,
7176,-0.00915527,0.00636597,
7178,-0.0115967,0.00644531,
7180,-0.0164795,0.00656738,
7182,-0.0109863,0.00664063,
7184,-0.00671387,0.00670776,
7186,-0.00488281,0.00661621,
7188,-0.00488281,0.00657959,
7190,-0.00244141,0.0065918,
7192,-0.0115967,0.00661621,
7194,-0.00976563,0.00664063,
7196,0.00427246,0.00653687,
7198,0,0.00639648,
7200,-0.0109863,0.00630493,
7202,-0.00427246,0.00633545,
7204,-0.00671387,0.00632935,
7206,-0.00793457,0.00632324,
7208,-0.00915527,0.00634766,
7210,-0.00427246,0.00638428,
7212,0.000610352,0.00629883,
7214,-0.00244141,0.00614624,
7216,0.000610352,0.00598145,
7218,-0.0134277,0.00609741,
7220,-0.00915527,0.00606689,
7222,0.000610352,0.00596924,
7224,-0.00488281,0.00598755,
7226,-0.00732422,0.00601196,
7228,-0.010376,0.00585938,
7230,-0.00610352,0.00584717,
7232,-0.00671387,0.00588989,
7234,-0.00366211,0.0059021,
7236,0.00366211,0.00585327,
7238,-0.00793457,0.00581665,
7240,-0.000610352,0.0057312,
7242,-0.00244141,0.00567627,
7244,-0.0158691,0.00576172,
7246,-0.00305176,0.00578003,
7248,-0.00854492,0.00577393,
7250,-0.0134277,0.0059021,
7252,-0.00610352,0.00592041,
7254,-0.00915527,0.00598145,
7256,0.00427246,0.00599976,
7258,-0.00854492,0.006073,
7260,-0.00671387,0.00610962,
7262,0.00732422,0.00612183,
7264,0.00610352,0.00617065,
7266,0.00854492,0.0062561,
7268,-0.00427246,0.00622559,
7270,-0.00366211,0.0062561,
7272,0.00732422,0.00626831,
7274,-0.0170898,0.00636597,
7276,0.00183105,0.00632324,
7278,-0.00976563,0.00632324,
7280,-0.00366211,0.00631104,
7282,0.00915527,0.00635376,
7284,0.012207,0.00645142,
7286,-0.00610352,0.00645142,
7288,-0.0109863,0.00649414,
7290,-0.010376,0.00657349,
7292,0.00915527,0.00653076,
7294,-0.00244141,0.00647583,
7296,-0.0140381,0.00661621,
7298,-0.0268555,0.00681152,
7300,-0.0189209,0.0069519,
7302,-0.00976563,0.00697632,
7304,-0.00183105,0.00697021,
7306,0.0109863,0.00695801,
7308,-0.00488281,0.0069458,
7310,-0.0189209,0.00704956,
7312,-0.00427246,0.00697021,
7314,-0.00183105,0.00692139,
7316,-0.00366211,0.00689087,
7318,-0.00854492,0.00687866,
7320,-0.00915527,0.00686035,
7322,-0.00366211,0.00688477,
7324,-0.012207,0.0069519,
7326,-0.00305176,0.00697632,
7328,0.00183105,0.00696411,
7330,0.00244141,0.0069397,
7332,-0.0012207,0.0069458,
7334,-0.00793457,0.00701294,
7336,-0.0109863,0.00707397,
7338,0.00305176,0.00709229,
7340,-0.0012207,0.00708008,
7342,-0.0164795,0.00723877,
7344,-0.00610352,0.00726318,
7346,-0.00793457,0.00733643,
7348,-0.0152588,0.00739746,
7350,-0.00854492,0.00741577,
7352,-0.00732422,0.00744629,
7354,-0.0109863,0.00748901,
7356,-0.00610352,0.00747681,
7358,-0.0109863,0.00755615,
7360,0,0.0074585,
7362,-0.00671387,0.00745239,
7364,-0.00610352,0.00737915,
7366,0.00549316,0.00742798,
7368,0.000610352,0.00730591,
7370,-0.0012207,0.00721436,
7372,-0.00793457,0.00726318,
7374,-0.012207,0.00733643,
7376,0.000610352,0.00725098,
7378,-0.00305176,0.00716553,
7380,-0.0128174,0.00712891,
7382,-0.012207,0.00714111,
7384,-0.0128174,0.00720215,
7386,-0.00366211,0.00718994,
7388,-0.00183105,0.00715942,
7390,0,0.00713501,
7392,-0.010376,0.0071228,
7394,-0.0146484,0.00717163,
7396,0.00610352,0.00718994,
7398,-0.0164795,0.00735474,
7400,-0.00549316,0.0072998,
7402,-0.0109863,0.00736694,
7404,-0.0134277,0.00743408,
7406,-0.00915527,0.00744629,
7408,-0.0128174,0.00748291,
7410,-0.0109863,0.00755005,
7412,-0.00671387,0.00761108,
7414,-0.00610352,0.00764771,
7416,-0.00793457,0.00772095,
7418,-0.0012207,0.00759888,
7420,-0.00549316,0.00756226,
7422,-0.00610352,0.00761719,
7424,-0.00488281,0.00761719,
7426,0.00549316,0.00759888,
7428,-0.00793457,0.00757446,
7430,-0.00305176,0.00754395,
7432,-0.000610352,0.00748291,
7434,-0.00671387,0.00751343,
7436,-0.00732422,0.00755005,
7438,-0.00976563,0.00756836,
7440,-0.00244141,0.00758667,
7442,-0.00244141,0.00758667,
7444,0.00488281,0.00747681,
7446,-0.010376,0.00755005,
7448,-0.0012207,0.00747681,
7450,-0.00183105,0.00736084,
7452,-0.00793457,0.00737915,
7454,-0.00244141,0.00731201,
7456,-0.00305176,0.0072998,
7458,-0.0128174,0.00734253,
7460,-0.00427246,0.00731812,
7462,-0.00305176,0.00727539,
7464,-0.0115967,0.00733032,
7466,-0.00488281,0.0072937,
7468,-0.00244141,0.00727539,
7470,0,0.00723877,
7472,-0.00793457,0.00724487,
7474,-0.00305176,0.00710449,
7476,-0.00732422,0.00715942,
7478,-0.00183105,0.00708008,
7480,-0.0109863,0.00715332,
7482,-0.0012207,0.00707397,
7484,-0.00244141,0.00697632,
7486,0.000610352,0.00692139,
7488,-0.00549316,0.00686646,
7490,-0.00793457,0.00684204,
7492,-0.00793457,0.00682983,
7494,-0.00427246,0.00684814,
7496,0.00305176,0.00673828,
7498,-0.0158691,0.00662842,
7500,-0.00183105,0.00645752,
7502,-0.0152588,0.00651245,
7504,-0.00183105,0.00651245,
7506,-0.000610352,0.00640869,
7508,-0.00732422,0.00643311,
7510,0.0012207,0.0062561,
7512,-0.0183105,0.00639648,
7514,0.00610352,0.00643921,
7516,0.010376,0.00650635,
7518,-0.00854492,0.00650635,
7520,-0.00244141,0.00643921,
7522,0.00549316,0.00645752,
7524,0.0012207,0.00634766,
7526,-0.0140381,0.00645752,
7528,-0.0164795,0.006604,
7530,-0.00244141,0.006604,
7532,-0.00732422,0.00666504,
7534,-0.0268555,0.00685425,
7536,-0.0262451,0.00700684,
7538,-0.00793457,0.00705566,
7540,-0.0189209,0.00723267,
7542,-0.0128174,0.00719604,
7544,-0.00549316,0.00718994,
7546,0.00183105,0.00712891,
7548,-0.000610352,0.00698242,
7550,-0.00732422,0.00697021,
7552,-0.00610352,0.00695801,
7554,0,0.00684814,
7556,0.0012207,0.00679932,
7558,-0.00976563,0.00678711,
7560,-0.0146484,0.00693359,
7562,-0.00793457,0.0069458,
7564,-0.00610352,0.0069458,
7566,-0.00976563,0.00698853,
7568,-0.0115967,0.00709839,
7570,-0.00732422,0.00715942,
7572,-0.000610352,0.00708618,
7574,-0.00366211,0.00700073,
7576,-0.00427246,0.00703735,
7578,-0.00610352,0.00706787,
7580,-0.00854492,0.00702515,
7582,-0.00427246,0.0069458,
7584,0.00427246,0.00686035,
7586,-0.022583,0.00704956,
7588,-0.012207,0.00715332,
7590,-0.00549316,0.00720825,
7592,-0.0109863,0.00721436,
7594,-0.012207,0.00718994,
7596,-0.00488281,0.00717773,
7598,-0.00427246,0.00705566,
7600,-0.00183105,0.00701904,
7602,-0.00671387,0.00697632,
7604,-0.00915527,0.00693359,
7606,0.00305176,0.00687256,
7608,-0.00671387,0.00681152,
7610,-0.0115967,0.00681763,
7612,-0.00427246,0.00679321,
7614,-0.00976563,0.00682983,
7616,-0.00976563,0.00684814,
7618,-0.0012207,0.00684814,
7620,-0.00244141,0.00681763,
7622,0.00854492,0.00684204,
7624,0.00549316,0.00684814,
7626,0.000610352,0.00679932,
7628,0,0.00671997,
7630,0.00183105,0.00670776,
7632,-0.0158691,0.00686035,
7634,0.000610352,0.00679932,
7636,-0.012207,0.00684814,
7638,-0.0152588,0.00690308,
7640,-0.0189209,0.00706787,
7642,-0.0115967,0.00715942,
7644,0.00366211,0.00714722,
7646,0,0.00704346,
7648,-0.0146484,0.00717773,
7650,0.00732422,0.00723267,
7652,-0.00549316,0.00720825,
7654,0.0012207,0.00719604,
7656,-0.00793457,0.00724487,
7658,-0.0128174,0.00724487,
7660,0,0.00720215,
7662,-0.00793457,0.00725098,
7664,-0.020752,0.00734253,
7666,0.000610352,0.0072998,
7668,-0.000610352,0.00728149,
7670,-0.00366211,0.00731812,
7672,-0.0012207,0.00725098,
7674,-0.00732422,0.0072937,
7676,-0.010376,0.00732422,
7678,-0.00183105,0.00732422,
7680,-0.00671387,0.00728149,
7682,0.000610352,0.00727539,
7684,-0.00549316,0.00730591,
7686,-0.00671387,0.00736694,
7688,-0.012207,0.00743408,
7690,-0.00305176,0.00738525,
7692,0.000610352,0.00731201,
7694,-0.00427246,0.00731201,
7696,-0.00610352,0.00734253,
7698,-0.00610352,0.00724487,
7700,-0.00244141,0.00725098,
7702,-0.00244141,0.0071228,
7704,-0.00244141,0.00712891,
7706,0.00610352,0.00718384,
7708,-0.00732422,0.00718384,
7710,-0.00915527,0.00726318,
7712,0.00732422,0.00715332,
7714,-0.00244141,0.0071167,
7716,-0.010376,0.0071167,
7718,-0.0115967,0.00714722,
7720,-0.00732422,0.00719604,
7722,-0.00488281,0.00718994,
7724,-0.0158691,0.00733643,
7726,0,0.00719604,
7728,-0.00732422,0.00710449,
7730,-0.00183105,0.00709839,
7732,0.00488281,0.00707397,
7734,-0.00488281,0.00685425,
7736,0.00976563,0.00668945,
7738,0.0012207,0.00662231,
7740,-0.0128174,0.00656128,
7742,-0.00183105,0.00645142,
7744,0.0128174,0.00652466,
7746,-0.00244141,0.00653076,
7748,-0.0189209,0.00671387,
7750,-0.0146484,0.00678711,
7752,0.00915527,0.00681763,
7754,-0.00976563,0.00691528,
7756,-0.0134277,0.00703735,
7758,-0.00976563,0.00703735,
7760,-0.00732422,0.00696411,
7762,-0.00183105,0.00690308,
7764,-0.00793457,0.00692139,
7766,-0.0146484,0.00697021,
7768,0.0012207,0.00686646,
7770,0.00427246,0.00683594,
7772,0.00183105,0.00684814,
7774,-0.0201416,0.00701294,
7776,-0.000610352,0.00697632,
7778,0.00183105,0.00693359,
7780,-0.00427246,0.00689087,
7782,-0.0115967,0.00696411,
7784,-0.00793457,0.00700073,
7786,-0.00366211,0.00681152,
7788,-0.00671387,0.00675659,
7790,-0.00671387,0.0067688,
7792,-0.00671387,0.00672607,
7794,-0.00366211,0.00664063,
7796,0.00549316,0.00664673,
7798,-0.0146484,0.00675049,
7800,-0.00488281,0.00678101,
7802,-0.00366211,0.00675049,
7804,-0.00427246,0.00670166,
7806,-0.00183105,0.00668945,
7808,-0.0146484,0.0067688,
7810,-0.00305176,0.00668335,
7812,-0.00610352,0.00670166,
7814,-0.00671387,0.00667114,
7816,-0.00244141,0.0065979,
7818,-0.0140381,0.00672607,
7820,0,0.00670166,
7822,-0.00854492,0.00670166,
7824,-0.00244141,0.00667114,
7826,-0.00183105,0.00668335,
7828,-0.00366211,0.00671997,
7830,0.00244141,0.00672607,
7832,0.00305176,0.0065979,
7834,-0.00915527,0.00668335,
7836,0.0134277,0.00669556,
7838,-0.0109863,0.00665283,
7840,0.00427246,0.00650635,
7842,-0.00793457,0.00646973,
7844,-0.00305176,0.00646362,
7846,-0.00244141,0.00648804,
7848,0.00793457,0.0064209,
7850,0.0012207,0.00635986,
7852,-0.0012207,0.00631714,
7854,-0.00244141,0.00632935,
7856,0.00976563,0.00634766,
7858,-0.00549316,0.00627441,
7860,-0.00915527,0.00636597,
7862,-0.0012207,0.00629883,
7864,-0.00610352,0.00615234,
7866,-0.00732422,0.00621948,
7868,-0.0140381,0.00635376,
7870,-0.00854492,0.00640259,
7872,-0.000610352,0.00639648,
7874,-0.00976563,0.0064209,
7876,-0.00366211,0.00635376,
7878,0.00793457,0.00641479,
7880,-0.00305176,0.00637817,
7882,-0.0189209,0.00656128,
7884,0,0.00650635,
7886,-0.00366211,0.00647583,
7888,-0.010376,0.00645752,
7890,-0.012207,0.00654907,
7892,-0.0012207,0.00655518,
7894,-0.00366211,0.00654907,
7896,-0.00854492,0.00657349,
7898,-0.00732422,0.00658569,
7900,-0.00244141,0.00658569,
7902,0.00488281,0.00661011,
7904,-0.00244141,0.00661011,
7906,0.00183105,0.00656738,
7908,-0.00610352,0.00655518,
7910,-0.00915527,0.00655518,
7912,0.000610352,0.00648804,
7914,0,0.00646362,
7916,-0.00793457,0.00643921,
7918,-0.00976563,0.0064209,
7920,-0.00793457,0.006427,
7922,-0.00549316,0.00643311,
7924,-0.010376,0.00637817,
7926,0,0.00637817,
7928,0.00305176,0.00633545,
7930,0.0115967,0.00643311,
7932,0.0195313,0.00657959,
7934,-0.00671387,0.0065979,
7936,-0.0158691,0.00665894,
7938,0.0140381,0.00678711,
7940,0.0140381,0.00679932,
7942,-0.00915527,0.00687256,
7944,-0.0299072,0.00704346,
7946,-0.00549316,0.00707397,
7948,-0.00854492,0.00697021,
7950,-0.0140381,0.00696411,
7952,-0.00793457,0.0069519,
7954,0.0012207,0.00686646,
7956,-0.00488281,0.00678101,
7958,-0.00854492,0.0067688,
7960,0.0115967,0.00681152,
7962,-0.00854492,0.00687866,
7964,-0.0238037,0.00703735,
7966,-0.0012207,0.00690308,
7968,-0.00915527,0.00698242,
7970,-0.00671387,0.00700684,
7972,-0.012207,0.0071106,
7974,-0.0183105,0.00709229,
7976,-0.00610352,0.00714722,
7978,-0.0012207,0.00714111,
7980,0.000610352,0.00710449,
7982,0.00793457,0.00706787,
7984,0.0128174,0.0071167,
7986,-0.00183105,0.00709839,
7988,-0.0183105,0.00721436,
7990,-0.00671387,0.00721436,
7992,0.00488281,0.00719604,
7994,-0.00854492,0.00724487,
7996,-0.00793457,0.00726929,
7998,-0.0128174,0.00725098,
8000,-0.022583,0.00742798,
8002,-0.00915527,0.00748291,
8004,-0.0115967,0.00755615,
8006,0.00549316,0.00759277,
8008,-0.0177002,0.00762329,
8010,-0.0140381,0.00773315,
8012,-0.0164795,0.00783691,
8014,-0.00915527,0.00786133,
8016,-0.0109863,0.00794678,
8018,-0.00610352,0.00786743,
8020,0.00305176,0.00789795,
8022,-0.00427246,0.00785522,
8024,-0.0250244,0.00808105,
8026,0.00305176,0.00809326,
8028,0.00183105,0.00807495,
8030,0.00305176,0.00808105,
8032,0.0128174,0.00817871,
8034,-0.0231934,0.00831909,
8036,-0.0213623,0.00839844,
8038,0,0.00828857,
8040,-0.0012207,0.00825806,
8042,-0.00915527,0.00827026,
8044,-0.0195313,0.00843506,
8046,-0.0158691,0.00856934,
8048,-0.0146484,0.00863647,
8050,-0.0146484,0.00877075,
8052,-0.00244141,0.00878296,
8054,-0.00610352,0.00881958,
8056,-0.00366211,0.00875854,
8058,-0.0012207,0.00871582,
8060,0.000610352,0.00863037,
8062,0.000610352,0.00862427,
8064,-0.00244141,0.00858765,
8066,-0.00610352,0.00857544,
8068,-0.010376,0.00853882,
8070,0.00366211,0.00848999,
8072,-0.00366211,0.00852051,
8074,-0.0134277,0.00855713,
8076,-0.00610352,0.00858154,
8078,-0.00549316,0.00855713,
8080,-0.00854492,0.00861206,
8082,0,0.00842285,
8084,-0.00305176,0.00845337,
8086,0.00183105,0.00843506,
8088,-0.00366211,0.00836792,
8090,-0.00305176,0.00827637,
8092,-0.000610352,0.00827026,
8094,0.00549316,0.00828857,
8096,-0.00610352,0.00826416,
8098,-0.012207,0.00831299,
8100,0.00366211,0.0083252,
8102,-0.0115967,0.00839233,
8104,-0.00244141,0.00839233,
8106,-0.00732422,0.00844727,
8108,-0.010376,0.00848999,
8110,0,0.00839844,
8112,-0.00610352,0.00845337,
8114,-0.012207,0.00857544,
8116,-0.0012207,0.0085083,
8118,-0.0134277,0.00854492,
8120,0.00793457,0.00854492,
8122,-0.00244141,0.0085144,
8124,-0.0244141,0.00865479,
8126,-0.00793457,0.00873413,
8128,0.00183105,0.00872192,
8130,-0.00427246,0.00864868,
8132,0.00305176,0.00848389,
8134,-0.00854492,0.0085022,
8136,-0.00549316,0.00839844,
8138,-0.00915527,0.00834961,
8140,-0.0012207,0.00822144,
8142,-0.00610352,0.00819092,
8144,-0.0109863,0.00800171,
8146,0.0012207,0.00795898,
8148,-0.00915527,0.00796509,
8150,-0.00915527,0.00791626,
8152,-0.0012207,0.00784912,
8154,-0.00610352,0.00789795,
8156,-0.00854492,0.00793457,
8158,0,0.00784912,
8160,0,0.00773315,
8162,-0.00732422,0.00772095,
8164,-0.00915527,0.00757446,
8166,0.00671387,0.00762939,
8168,-0.00671387,0.00760498,
8170,-0.00671387,0.00760498,
8172,0.00671387,0.00755005,
8174,-0.00549316,0.00742187,
8176,-0.00854492,0.00744629,
8178,0.000610352,0.00744019,
8180,0.00244141,0.0074585,
8182,0,0.00737915,
8184,-0.0231934,0.00748291,
8186,-0.00671387,0.00753174,
8188,0.012207,0.0074707,
8190,-0.00488281,0.00745239,
8192,0.00244141,0.00742798,
8194,0.000610352,0.00734863,
8196,-0.00732422,0.00734253,
8198,-0.00305176,0.00724487,
8200,-0.00793457,0.00709839,
8202,-0.00549316,0.00706177,
8204,-0.00244141,0.00697021,
8206,-0.00793457,0.00699463,
8208,-0.0195313,0.00701294,
8210,-0.0109863,0.00698242,
8212,-0.00305176,0.00684814,
8214,-0.00854492,0.00684204,
8216,-0.00610352,0.00679321,
8218,-0.00488281,0.00678101,
8220,-0.00488281,0.00679932,
8222,-0.00671387,0.00682373,
8224,-0.00305176,0.006604,
8226,-0.00366211,0.00661011,
8228,-0.00305176,0.00662231,
8230,-0.00732422,0.00666504,
8232,0.0012207,0.00654907,
8234,-0.00610352,0.00637817,
8236,0,0.00616455,
8238,-0.00610352,0.00622559,
8240,-0.00488281,0.00626221,
8242,-0.00244141,0.00619507,
8244,-0.00183105,0.00601807,
8246,-0.00244141,0.00588379,
8248,0.00366211,0.00577393,
8250,-0.000610352,0.00563354,
8252,0.00732422,0.00568237,
8254,0,0.00562134,
8256,-0.0115967,0.00570068,
8258,0.00488281,0.0057373,
8260,-0.0012207,0.00574341,
8262,-0.0140381,0.00587769,
8264,-0.0146484,0.00599976,
8266,-0.00488281,0.00598755,
8268,-0.00732422,0.00595703,
8270,-0.00488281,0.00596924,
8272,-0.00366211,0.00596924,
8274,-0.00854492,0.00592041,
8276,0.00610352,0.00592041,
8278,0.00610352,0.00592651,
8280,-0.00244141,0.00586548,
8282,0.00488281,0.00591431,
8284,-0.00671387,0.00595093,
8286,0.00610352,0.00599365,
8288,-0.00732422,0.00603027,
8290,-0.0177002,0.00617676,
8292,-0.0012207,0.00618286,
8294,-0.0109863,0.00623779,
8296,-0.00427246,0.00621948,
8298,-0.00488281,0.00614624,
8300,-0.0152588,0.00626221,
8302,-0.00915527,0.00623779,
8304,0.00183105,0.00623169,
8306,0.0012207,0.00617065,
8308,-0.00610352,0.00612793,
8310,-0.0164795,0.00629272,
8312,-0.0012207,0.0062439,
8314,-0.00793457,0.00620117,
8316,-0.010376,0.00629272,
8318,-0.00427246,0.00620117,
8320,-0.00610352,0.00618286,
8322,-0.010376,0.00626221,
8324,0.00244141,0.00604248,
