Dani_C_2-L01
Gráfico creado el:2026-06-03 16:47:03.624
Registro en:2026-06-03 16:50:58.918
2 mseg/muestras
2 canales
EMG
mV
EMG Integrado
mV-sec
milliSec,CH1,CH40,
,91388 samples,91388 samples,
0,0.00244141,2.44141E-05,
2,0.0213623,0.000238037,
4,-0.00671387,0.000305176,
6,0.0134277,0.000439453,
8,-0.0146484,0.000585937,
10,-0.0115967,0.000701904,
12,-0.0311279,0.00101318,
14,-0.0213623,0.00122681,
16,-0.0164795,0.0013916,
18,-0.0146484,0.00153809,
20,-0.0256348,0.00179443,
22,-0.0213623,0.00200806,
24,-0.0219727,0.00222778,
26,-0.0378418,0.0026062,
28,-0.0299072,0.00290527,
30,-0.0183105,0.00308838,
32,-0.0146484,0.00323486,
34,-0.0152588,0.00338745,
36,-0.0146484,0.00353394,
38,-0.00793457,0.00361328,
40,-0.00915527,0.00370483,
42,-0.00671387,0.00377197,
44,-0.00915527,0.00386353,
46,0.00244141,0.00388794,
48,-0.0158691,0.00404663,
50,-0.00488281,0.00409546,
52,0.00671387,0.0041626,
54,-0.0152588,0.00431519,
56,-0.0115967,0.00443115,
58,0.00366211,0.00446777,
60,-0.00183105,0.00448608,
62,-0.00671387,0.00455322,
64,-0.0250244,0.00480347,
66,0.000610352,0.00480957,
68,-0.00671387,0.00487671,
70,0,0.00487671,
72,0.00610352,0.00493774,
74,-0.0280762,0.00521851,
76,-0.0152588,0.00537109,
78,0.00305176,0.00540161,
80,-0.00732422,0.00547485,
82,-0.0164795,0.00563965,
84,-0.0140381,0.00578003,
86,-0.00854492,0.00586548,
88,-0.0146484,0.00601196,
90,-0.00976563,0.00610962,
92,-0.00854492,0.00619507,
94,-0.00366211,0.00623169,
96,-0.00305176,0.00626221,
98,-0.00793457,0.00634155,
100,-0.00305176,0.00637207,
102,-0.00244141,0.00639648,
104,0.00183105,0.00641479,
106,0.0140381,0.00655518,
108,0.0109863,0.00666504,
110,-0.00244141,0.00668945,
112,-0.00610352,0.00675049,
114,0.000610352,0.00675659,
116,0.0268555,0.00702515,
118,0.0262451,0.0072876,
120,0.0292969,0.00758057,
122,0.000610352,0.00758667,
124,-0.00244141,0.00761108,
126,0.0256348,0.00786743,
128,0.0341797,0.00820923,
130,0.00976563,0.00830688,
132,-0.0341797,0.00864868,
134,-0.0189209,0.00883789,
136,-0.0476074,0.00931396,
138,-0.0317383,0.00963135,
140,-0.0311279,0.00994263,
142,-0.03479,0.0102905,
144,-0.0323486,0.010614,
146,-0.0201416,0.0108154,
148,-0.0152588,0.010968,
150,-0.0170898,0.0111389,
152,-0.0012207,0.0111511,
154,-0.010376,0.0112549,
156,-0.0115967,0.0113708,
158,-0.00732422,0.0114441,
160,-0.0115967,0.0115601,
162,-0.0140381,0.0117004,
164,-0.0152588,0.011853,
166,-0.0134277,0.0119873,
168,-0.00427246,0.01203,
170,-0.00793457,0.0121094,
172,-0.012207,0.0122314,
174,-0.0012207,0.0122437,
176,-0.00793457,0.012323,
178,-0.0109863,0.0124329,
180,-0.00549316,0.0124878,
182,-0.00183105,0.0125061,
184,-0.00183105,0.0125244,
186,-0.00732422,0.0125977,
188,-0.0128174,0.0127258,
190,-0.0164795,0.0128906,
192,-0.0012207,0.0129028,
194,-0.00305176,0.0129333,
196,-0.0128174,0.0130615,
198,-0.012207,0.0131836,
200,-0.00854492,0.0132446,
202,-0.00854492,0.0131165,
204,-0.00671387,0.0131165,
206,-0.0152588,0.0131348,
208,-0.00976563,0.0130859,
210,-0.000610352,0.0129761,
212,0.00244141,0.0126892,
214,-0.0134277,0.0126099,
216,-0.0158691,0.0126038,
218,-0.000610352,0.0124634,
220,-0.00183105,0.0122253,
222,-0.00793457,0.0120911,
224,-0.00671387,0.0119385,
226,-0.00793457,0.0116394,
228,-0.0115967,0.0114563,
230,-0.0146484,0.0114197,
232,-0.00366211,0.0113098,
234,-0.00793457,0.0112366,
236,0.0012207,0.0111023,
238,-0.0262451,0.0112854,
240,-0.00671387,0.011261,
242,-0.00549316,0.0112488,
244,0,0.0111572,
246,-0.0115967,0.0112488,
248,-0.00915527,0.0111816,
250,-0.00549316,0.0111877,
252,0.00305176,0.0111511,
254,-0.0140381,0.0111389,
256,-0.00671387,0.0110901,
258,-0.00671387,0.0111206,
260,0.00793457,0.0111816,
262,-0.0201416,0.0113159,
264,0,0.0110657,
266,-0.00671387,0.0111267,
268,-0.00183105,0.0110779,
270,-0.00427246,0.0111206,
272,0.00488281,0.0111084,
274,-0.00793457,0.010907,
276,0.00183105,0.0107727,
278,-0.00305176,0.0107727,
280,-0.00976563,0.0107971,
282,-0.020752,0.0108398,
284,0.0146484,0.0108459,
286,-0.0231934,0.0109924,
288,0.00610352,0.010907,
290,-0.010376,0.0109131,
292,-0.0189209,0.0110168,
294,0.00488281,0.0110291,
296,-0.00366211,0.0110352,
298,0.0012207,0.010968,
300,-0.010376,0.0110413,
302,0.0152588,0.0111694,
304,0.0177002,0.0113281,
306,0.0286865,0.0114746,
308,0.00671387,0.0114319,
310,-0.0134277,0.0115417,
312,0.00488281,0.0115295,
314,0.0012207,0.0115356,
316,-0.00549316,0.011322,
318,-0.0152588,0.0112122,
320,-0.0488281,0.0114075,
322,-0.0250244,0.0116516,
324,-0.00244141,0.0116516,
326,0.00610352,0.0114563,
328,-0.00854492,0.0112,
330,-0.012207,0.0112244,
332,0.00366211,0.0109192,
334,0.0012207,0.0107422,
336,-0.00854492,0.0103516,
338,-0.00549316,0.0100891,
340,-0.0183105,0.00996094,
342,-0.032959,0.00994263,
344,-0.0115967,0.00973511,
346,-0.0274658,0.00980835,
348,-0.010376,0.00975952,
350,-0.00915527,0.00968018,
352,-0.00671387,0.00973511,
354,-0.0201416,0.00983276,
356,-0.020752,0.00992432,
358,-0.0170898,0.010022,
360,0.00671387,0.00997314,
362,0.0494385,0.0103271,
364,0.0579834,0.0107544,
366,0.0732422,0.0113525,
368,0.0653076,0.0119629,
370,0.00854492,0.011969,
372,0.00366211,0.0118835,
374,0.0543213,0.0124146,
376,-0.0378418,0.0127136,
378,-0.055542,0.0131592,
380,-0.0909424,0.0140137,
382,-0.0872803,0.0148682,
384,-0.0726318,0.0155762,
386,-0.0494385,0.0159973,
388,-0.0201416,0.0160706,
390,0.0146484,0.0160522,
392,0.0311279,0.0163513,
394,0.0695801,0.0170166,
396,0.0665283,0.0175537,
398,0.0744629,0.0181763,
400,0.0372314,0.0184631,
402,-0.00305176,0.0184082,
404,0.0341797,0.0186829,
406,0.0109863,0.0186401,
408,-0.03479,0.0188904,
410,-0.0756836,0.0196411,
412,-0.0744629,0.0203613,
414,-0.0750732,0.0209778,
416,-0.0512695,0.0213318,
418,-0.0524902,0.0218506,
420,-0.0439453,0.0222717,
422,-0.0354004,0.0225464,
424,0.00610352,0.0225403,
426,0.0408936,0.0228699,
428,0.0396729,0.0231506,
430,-0.010376,0.0231079,
432,-0.00793457,0.0231506,
434,0.0274658,0.0233459,
436,-0.00183105,0.0233521,
438,-0.0146484,0.0232361,
440,-0.0372314,0.0235413,
442,-0.045166,0.023938,
444,-0.0445557,0.0243835,
446,-0.032959,0.0245972,
448,-0.0189209,0.0246948,
450,-0.0177002,0.0248169,
452,0.0012207,0.0247986,
454,-0.00549316,0.0247131,
456,0.00305176,0.0246765,
458,-0.0250244,0.0248596,
460,-0.00732422,0.0248535,
462,0.00183105,0.0246704,
464,0.00427246,0.0247131,
466,-0.00427246,0.0246887,
468,-0.0128174,0.0247986,
470,-0.0164795,0.0249207,
472,-0.0219727,0.0250916,
474,-0.00671387,0.0250793,
476,-0.0341797,0.0254028,
478,0,0.0253723,
480,-0.0256348,0.025531,
482,-0.0341797,0.0256653,
484,-0.0152588,0.0256714,
486,-0.022583,0.0256653,
488,-0.0140381,0.0257446,
490,0.0445557,0.0260864,
492,0.00366211,0.0259338,
494,-0.0177002,0.026062,
496,-0.00793457,0.0261047,
498,0.0158691,0.0262512,
500,0.00549316,0.0262024,
502,-0.0152588,0.0262024,
504,-0.0170898,0.0261963,
506,-0.012207,0.0260315,
508,-0.00854492,0.0260498,
510,0.0012207,0.0259277,
512,0,0.0258789,
514,0.0415039,0.0262817,
516,-0.0372314,0.0265991,
518,0.00183105,0.0264648,
520,-0.00488281,0.0260254,
522,0.00183105,0.0257935,
524,0.00488281,0.0258179,
526,-0.0378418,0.0261353,
528,-0.0244141,0.0262939,
530,-0.0219727,0.0263916,
532,-0.010376,0.0264587,
534,-0.00732422,0.0265198,
536,-0.0140381,0.0265747,
538,-0.0012207,0.026532,
540,0.012207,0.0264709,
542,-0.00976563,0.026239,
544,-0.0183105,0.0263062,
546,-0.0012207,0.0260437,
548,0.0268555,0.0262085,
550,-0.0177002,0.0262939,
552,-0.00671387,0.0262939,
554,-0.020752,0.0263,
556,-0.0146484,0.026239,
558,0.00244141,0.0260925,
560,-0.0158691,0.0261841,
562,-0.0152588,0.0258423,
564,-0.00854492,0.0253479,
566,-0.0201416,0.0248169,
568,-0.00549316,0.0242188,
570,-0.0152588,0.0242859,
572,-0.012207,0.0243713,
574,-0.00549316,0.0238831,
576,-0.0244141,0.0237488,
578,-0.012207,0.0233154,
580,-0.00244141,0.0224304,
582,0.00305176,0.0215881,
584,-0.00305176,0.0208923,
586,-0.0128174,0.0205261,
588,-0.0274658,0.0205994,
590,0.00183105,0.0204712,
592,0.00610352,0.0202209,
594,-0.00427246,0.0195679,
596,0.012207,0.0190247,
598,0.0537109,0.0188171,
600,0.00366211,0.0184814,
602,0.00671387,0.0185181,
604,0.012207,0.0182983,
606,0.00854492,0.0182739,
608,-0.0231934,0.018158,
610,-0.0311279,0.0177124,
612,-0.0469971,0.0174377,
614,-0.0445557,0.0171326,
616,-0.0616455,0.0172363,
618,-0.0189209,0.0169006,
620,-0.0128174,0.0165894,
622,-0.0219727,0.0164551,
624,-0.012207,0.0165161,
626,-0.0140381,0.0162476,
628,0.0195313,0.0160461,
630,0.00915527,0.0160339,
632,0.000610352,0.0159607,
634,-0.0256348,0.0159424,
636,-0.0164795,0.0160889,
638,-0.00793457,0.0160217,
640,-0.00793457,0.0157288,
642,-0.0128174,0.0154053,
644,-0.00915527,0.0150513,
646,-0.0292969,0.0150146,
648,-0.0152588,0.014978,
650,-0.0109863,0.0149109,
652,-0.00976563,0.0149963,
654,-0.0152588,0.015094,
656,-0.00488281,0.0151123,
658,-0.00183105,0.0148804,
660,-0.0201416,0.0150085,
662,0.000610352,0.0149963,
664,-0.0189209,0.0151428,
666,-0.00366211,0.0151367,
668,0.0012207,0.0150208,
670,0.0146484,0.0150024,
672,0.0128174,0.0149109,
674,-0.00976563,0.0149414,
676,-0.00549316,0.0146545,
678,0.000610352,0.0146606,
680,0.0140381,0.0145447,
682,0.0158691,0.0143616,
684,0.012207,0.0143311,
686,-0.03479,0.0144531,
688,-0.012207,0.0144348,
690,-0.022583,0.0142151,
692,-0.0158691,0.0143372,
694,-0.00915527,0.0142517,
696,-0.0384521,0.0145569,
698,-0.0305176,0.0147034,
700,-0.0305176,0.0149536,
702,-0.0268555,0.0150696,
704,-0.0213623,0.0151123,
706,-0.012207,0.0151123,
708,0.00427246,0.0150696,
710,-0.0152588,0.01521,
712,0.00793457,0.0152893,
714,-0.00427246,0.014917,
716,0,0.0145447,
718,-0.00183105,0.0145447,
720,-0.00793457,0.0145752,
722,-0.0012207,0.0145691,
724,0.0115967,0.0146362,
726,-0.022583,0.0144836,
728,-0.0256348,0.0144958,
730,-0.00915527,0.0143677,
732,-0.00915527,0.0143555,
734,-0.00976563,0.0143799,
736,-0.0164795,0.0144043,
738,-0.0170898,0.014563,
740,-0.00854492,0.0145264,
742,-0.00610352,0.0144897,
744,-0.00244141,0.0143311,
746,-0.0164795,0.0144836,
748,0.0134277,0.0143494,
750,0.00793457,0.0142517,
752,-0.00976563,0.0142822,
754,0.00915527,0.0141663,
756,0.000610352,0.0140259,
758,-0.000610352,0.0140076,
760,0.0311279,0.0141602,
762,-0.00854492,0.014093,
764,-0.0189209,0.0141968,
766,-0.0183105,0.0141785,
768,-0.0146484,0.01427,
770,-0.03479,0.0144653,
772,-0.0274658,0.0146179,
774,-0.0189209,0.0147522,
776,-0.0354004,0.0148621,
778,-0.00854492,0.0148254,
780,-0.0268555,0.0150696,
782,-0.0152588,0.0151917,
784,-0.012207,0.0152832,
786,0,0.015155,
788,-0.00183105,0.0148987,
790,-0.00915527,0.0149719,
792,-0.0244141,0.015155,
794,-0.00976563,0.01521,
796,0.00305176,0.0151184,
798,-0.0372314,0.0149536,
800,-0.0170898,0.0150879,
802,-0.0170898,0.0151917,
804,-0.0158691,0.0152283,
806,-0.0372314,0.0155151,
808,-0.0109863,0.0153931,
810,-0.0231934,0.0153137,
812,-0.0195313,0.0150391,
814,-0.0109863,0.0147034,
816,-0.0140381,0.0142273,
818,-0.010376,0.0141418,
820,-0.0140381,0.0141541,
822,0.00488281,0.0139832,
824,-0.0158691,0.0140198,
826,-0.0109863,0.0139893,
828,-0.0012207,0.0138062,
830,0.00793457,0.0137939,
832,-0.00183105,0.0138062,
834,0.0158691,0.0137085,
836,-0.0128174,0.0136719,
838,-0.0152588,0.0137451,
840,-0.00793457,0.0137451,
842,0.000610352,0.013623,
844,-0.0128174,0.0136597,
846,-0.0201416,0.0135681,
848,-0.0231934,0.0136475,
850,-0.0012207,0.0135498,
852,-0.00671387,0.0135193,
854,-0.00610352,0.0134277,
856,-0.0109863,0.0134888,
858,-0.0134277,0.0136047,
860,0.00610352,0.0134644,
862,-0.0231934,0.0136902,
864,-0.0152588,0.0136536,
866,-0.0109863,0.0137268,
868,0.00610352,0.0137756,
870,-0.0170898,0.0138,
872,-0.00732422,0.0137451,
874,-0.00244141,0.0136719,
876,0.0158691,0.0137756,
878,-0.00427246,0.0138123,
880,-0.0305176,0.0139771,
882,-0.0177002,0.0139954,
884,0.0128174,0.0140015,
886,-0.0231934,0.0138855,
888,-0.0390625,0.0141541,
890,-0.0189209,0.0141174,
892,-0.00854492,0.0140442,
894,-0.000610352,0.0139587,
896,-0.0250244,0.0138245,
898,-0.012207,0.0136414,
900,-0.012207,0.0134583,
902,-0.00488281,0.0132385,
904,-0.0213623,0.0132385,
906,0.00305176,0.013147,
908,-0.00854492,0.0131897,
910,-0.0189209,0.0132263,
912,-0.00427246,0.0131897,
914,-0.00854492,0.0132324,
916,-0.00305176,0.0132629,
918,0.0134277,0.0133789,
920,0.00244141,0.013324,
922,0.000610352,0.0133179,
924,-0.00549316,0.0132568,
926,0.00427246,0.0130737,
928,-0.012207,0.0129395,
930,-0.0152588,0.0130005,
932,-0.0238037,0.013147,
934,-0.00488281,0.0130981,
936,-0.0164795,0.0130981,
938,-0.022583,0.0131531,
940,0.000610352,0.0130737,
942,0.00549316,0.0130676,
944,0.00976563,0.0131409,
946,0.00244141,0.0130005,
948,0.00732422,0.0129395,
950,0.0140381,0.0130005,
952,0.00305176,0.0129333,
954,-0.00366211,0.0128784,
956,-0.00854492,0.0129578,
958,-0.00366211,0.0129883,
960,-0.03479,0.0130249,
962,-0.0262451,0.0132019,
964,-0.00976563,0.0131104,
966,-0.00427246,0.01297,
968,-0.0128174,0.0129517,
970,-0.0518799,0.0131226,
972,-0.00793457,0.0129272,
974,-0.00244141,0.0127625,
976,-0.000610352,0.0124146,
978,-0.00183105,0.0123474,
980,-0.00732422,0.0121521,
982,-0.0189209,0.0121887,
984,-0.0115967,0.0121826,
986,-0.00732422,0.0122559,
988,-0.00793457,0.0123169,
990,-0.0146484,0.0123718,
992,-0.0109863,0.0122375,
994,0.00305176,0.0121704,
996,0.000610352,0.012146,
998,-0.010376,0.0118774,
1000,0.00183105,0.0117249,
1002,0.00610352,0.011615,
1004,-0.00854492,0.0115417,
1006,-0.00793457,0.0112488,
1008,-0.00793457,0.0112183,
1010,-0.0177002,0.0111633,
1012,-0.0140381,0.0111084,
1014,-0.0134277,0.0111328,
1016,-0.0262451,0.0112549,
1018,-0.00427246,0.0111938,
1020,-0.0115967,0.0111694,
1022,0.00854492,0.0112061,
1024,0.00915527,0.0111389,
1026,0,0.0110291,
1028,-0.00854492,0.0111023,
1030,0.00305176,0.0110535,
1032,-0.0128174,0.0111633,
1034,-0.00427246,0.0110474,
1036,-0.00366211,0.0109558,
1038,-0.0158691,0.0109619,
1040,-0.0366211,0.0112488,
1042,-0.0177002,0.0114197,
1044,-0.0115967,0.0114075,
1046,0.0158691,0.0113647,
1048,-0.00549316,0.0111877,
1050,-0.012207,0.0112976,
1052,-0.0189209,0.0114197,
1054,0,0.0113586,
1056,-0.00976563,0.0113464,
1058,-0.0012207,0.0112244,
1060,-0.0256348,0.0114197,
1062,-0.0201416,0.0113892,
1064,-0.00915527,0.0113281,
1066,-0.012207,0.0113403,
1068,-0.00732422,0.0113525,
1070,-0.0115967,0.0112976,
1072,-0.00183105,0.0112427,
1074,0.010376,0.011322,
1076,-0.010376,0.0112671,
1078,-0.00671387,0.0112915,
1080,-0.00732422,0.0110596,
1082,0.0146484,0.0110291,
1084,0.0323486,0.0112244,
1086,0.00793457,0.0110718,
1088,-0.000610352,0.0106873,
1090,-0.00244141,0.0105225,
1092,-0.00366211,0.0104736,
1094,-0.00488281,0.0105164,
1096,-0.0183105,0.0104492,
1098,-0.0274658,0.0106018,
1100,-0.0360107,0.0108398,
1102,-0.0408936,0.0112,
1104,-0.0170898,0.0111572,
1106,-0.0335693,0.0114624,
1108,-0.0170898,0.0115479,
1110,-0.0109863,0.0114685,
1112,-0.022583,0.0116516,
1114,-0.00854492,0.0116516,
1116,-0.010376,0.0117249,
1118,-0.00671387,0.0116577,
1120,-0.0115967,0.0117493,
1122,-0.00244141,0.0117676,
1124,-0.010376,0.0118164,
1126,-0.00732422,0.0118469,
1128,-0.00549316,0.0117798,
1130,-0.0140381,0.0117676,
1132,-0.00488281,0.0115784,
1134,-0.00854492,0.011615,
1136,-0.0164795,0.011615,
1138,-0.00854492,0.0114746,
1140,-0.00976563,0.0115662,
1142,-0.012207,0.0116333,
1144,-0.00305176,0.0115662,
1146,-0.000610352,0.0115479,
1148,-0.00183105,0.0114929,
1150,-0.00854492,0.011438,
1152,0.00488281,0.0114563,
1154,-0.00488281,0.0114685,
1156,0.00488281,0.0114319,
1158,0.00366211,0.0114319,
1160,-0.0134277,0.0112183,
1162,-0.00244141,0.0109802,
1164,0.00732422,0.0109558,
1166,0.0152588,0.0110657,
1168,-0.0219727,0.0111572,
1170,-0.0109863,0.0107483,
1172,-0.0262451,0.0109314,
1174,0.00488281,0.0109558,
1176,-0.0213623,0.0111633,
1178,-0.0134277,0.0112793,
1180,-0.0201416,0.0114075,
1182,-0.0268555,0.0114868,
1184,-0.000610352,0.011377,
1186,-0.0262451,0.0115662,
1188,-0.0177002,0.0116638,
1190,-0.00427246,0.0115601,
1192,-0.0195313,0.0116455,
1194,-0.00915527,0.0117065,
1196,-0.0164795,0.0118652,
1198,-0.0262451,0.0120239,
1200,-0.00915527,0.0120972,
1202,0.0012207,0.0120483,
1204,-0.00549316,0.0120178,
1206,-0.00488281,0.0119873,
1208,-0.00488281,0.0119568,
1210,-0.012207,0.0119019,
1212,-0.0115967,0.0118774,
1214,0.00244141,0.0117676,
1216,-0.00793457,0.0115845,
1218,-0.0134277,0.011676,
1220,-0.00915527,0.0116516,
1222,-0.0128174,0.0116943,
1224,-0.010376,0.0117065,
1226,0.00366211,0.0117432,
1228,-0.00549316,0.0117126,
1230,-0.012207,0.0118042,
1232,-0.00732422,0.0117493,
1234,0.00671387,0.0117737,
1236,-0.00793457,0.0118164,
1238,0.00427246,0.0117004,
1240,-0.00183105,0.0113525,
1242,-0.00854492,0.011261,
1244,0.0152588,0.0112976,
1246,0.0115967,0.0112549,
1248,-0.0134277,0.0113342,
1250,-0.0183105,0.0113953,
1252,-0.00549316,0.011261,
1254,-0.00854492,0.0113464,
1256,-0.0183105,0.0114319,
1258,-0.0109863,0.0115295,
1260,-0.0152588,0.0114258,
1262,0.00915527,0.0113159,
1264,0.0140381,0.0113647,
1266,-0.00976563,0.0113403,
1268,0.000610352,0.0112732,
1270,0.00671387,0.0112244,
1272,0,0.0112061,
1274,-0.00366211,0.0111389,
1276,-0.00732422,0.0111084,
1278,-0.0231934,0.0112732,
1280,-0.032959,0.0115295,
1282,-0.00305176,0.0114136,
1284,0.0109863,0.0112,
1286,-0.012207,0.0112427,
1288,-0.0115967,0.0113525,
1290,-0.00244141,0.0113525,
1292,-0.0250244,0.0115662,
1294,-0.0128174,0.0116455,
1296,-0.0183105,0.0116455,
1298,-0.0170898,0.0115417,
1300,-0.0244141,0.0114258,
1302,-0.0158691,0.0111755,
1304,-0.0128174,0.0111328,
1306,-0.00183105,0.0108154,
1308,0.00366211,0.0106812,
1310,-0.0012207,0.0105835,
1312,0.00610352,0.0104187,
1314,0.00366211,0.0103699,
1316,-0.00427246,0.0103088,
1318,-0.00732422,0.0103149,
1320,-0.012207,0.010321,
1322,-0.00427246,0.0103394,
1324,-0.00732422,0.0103088,
1326,-0.00732422,0.0103088,
1328,-0.0115967,0.0103699,
1330,-0.00244141,0.0102539,
1332,0.00671387,0.0102722,
1334,0.00488281,0.0102356,
1336,0.00366211,0.0101074,
1338,0.00671387,0.0100891,
1340,0.00610352,0.0100525,
1342,0.0012207,0.00994263,
1344,-0.00671387,0.00997925,
1346,-0.00671387,0.0100403,
1348,-0.00732422,0.0100952,
1350,0.00610352,0.0100708,
1352,0.00915527,0.0101135,
1354,-0.0183105,0.0102478,
1356,-0.0164795,0.0103638,
1358,0.0012207,0.0103394,
1360,-0.020752,0.0104126,
1362,-0.00610352,0.0104492,
1364,-0.0238037,0.010614,
1366,-0.0299072,0.0107605,
1368,-0.0201416,0.0107422,
1370,-0.0213623,0.0108459,
1372,-0.0134277,0.0107178,
1374,-0.00305176,0.0106995,
1376,-0.0170898,0.0106567,
1378,-0.00732422,0.0105957,
1380,-0.0012207,0.0104065,
1382,-0.00366211,0.0101746,
1384,0.0280762,0.0104492,
1386,-0.00732422,0.01026,
1388,-0.0128174,0.0102112,
1390,-0.00732422,0.0102417,
1392,-0.00427246,0.0100891,
1394,0.012207,0.0101196,
1396,-0.0012207,0.00996704,
1398,-0.0128174,0.00983276,
1400,-0.0189209,0.00993042,
1402,0.012207,0.0100403,
1404,0.00793457,0.0100647,
1406,-0.00427246,0.0100586,
1408,-0.000610352,0.0100159,
1410,-0.0189209,0.010083,
1412,0.000610352,0.00997314,
1414,-0.00305176,0.00997925,
1416,-0.022583,0.0101257,
1418,-0.022583,0.0102173,
1420,-0.0231934,0.0103577,
1422,-0.0183105,0.0104126,
1424,-0.0152588,0.0104614,
1426,-0.0177002,0.0106018,
1428,0,0.0105469,
1430,-0.0183105,0.0106079,
1432,-0.0140381,0.010675,
1434,-0.00366211,0.0106445,
1436,-0.0152588,0.0107178,
1438,-0.00610352,0.0107361,
1440,0,0.0107178,
1442,-0.0177002,0.0108093,
1444,0.00366211,0.0106934,
1446,0.00183105,0.0105957,
1448,-0.0183105,0.0106445,
1450,0.00488281,0.0105103,
1452,-0.00610352,0.0105164,
1454,0.00610352,0.0104919,
1456,0.00183105,0.0103271,
1458,-0.00793457,0.0102966,
1460,-0.0146484,0.0102905,
1462,-0.0115967,0.0103149,
1464,-0.0146484,0.010321,
1466,0.0012207,0.0102356,
1468,-0.0170898,0.0104004,
1470,-0.0219727,0.010553,
1472,-0.0128174,0.0106812,
1474,-0.00305176,0.010675,
1476,-0.00976563,0.0106995,
1478,0.00366211,0.0105042,
1480,0,0.0101746,
1482,-0.00549316,0.010199,
1484,-0.0115967,0.0102051,
1486,0.00732422,0.0101563,
1488,-0.012207,0.0101624,
1490,-0.0231934,0.0103699,
1492,-0.0244141,0.0103638,
1494,-0.00610352,0.0102966,
1496,-0.0183105,0.0102966,
1498,-0.0128174,0.0102539,
1500,-0.0244141,0.0102539,
1502,-0.0115967,0.0102112,
1504,-0.010376,0.0101868,
1506,-0.00366211,0.0102051,
1508,-0.00732422,0.0102417,
1510,-0.00854492,0.0103149,
1512,-0.00976563,0.0103516,
1514,-0.00976563,0.0104126,
1516,-0.0152588,0.0105225,
1518,-0.00488281,0.010498,
1520,-0.00488281,0.0104248,
1522,0.0109863,0.0104919,
1524,-0.00305176,0.0104492,
1526,-0.0128174,0.0105042,
1528,0.020752,0.0105957,
1530,0.0164795,0.0107361,
1532,-0.00793457,0.0107483,
1534,0.00244141,0.0107239,
1536,-0.00183105,0.0107056,
1538,-0.00610352,0.0106995,
1540,-0.0134277,0.0107727,
1542,-0.00366211,0.0107971,
1544,-0.000610352,0.0107361,
1546,-0.00610352,0.01073,
1548,-0.00610352,0.0107178,
1550,-0.00793457,0.0107361,
1552,-0.0164795,0.0108093,
1554,0.0213623,0.0108398,
1556,-0.0012207,0.0106873,
1558,0.0195313,0.0108704,
1560,-0.0268555,0.0109314,
1562,-0.0195313,0.0110657,
1564,0.012207,0.0109497,
1566,0.00793457,0.01073,
1568,-0.00915527,0.0106201,
1570,-0.03479,0.0107544,
1572,-0.00793457,0.0106995,
1574,-0.0152588,0.0108215,
1576,-0.0256348,0.010907,
1578,-0.00671387,0.0109009,
1580,-0.020752,0.0110962,
1582,-0.0323486,0.0113831,
1584,-0.00183105,0.0111206,
1586,-0.00854492,0.0111328,
1588,-0.00183105,0.0110229,
1590,-0.00976563,0.0110474,
1592,-0.00732422,0.0110779,
1594,-0.000610352,0.0109619,
1596,-0.00854492,0.0110352,
1598,0.00183105,0.0109253,
1600,0.00244141,0.0107605,
1602,-0.00488281,0.0106873,
1604,-0.00488281,0.0106567,
1606,-0.00793457,0.0106934,
1608,0.00549316,0.0107422,
1610,0.00305176,0.0105835,
1612,-0.00549316,0.0106323,
1614,-0.00915527,0.0106934,
1616,-0.00915527,0.0105591,
1618,0.0115967,0.0104492,
1620,-0.00427246,0.01026,
1622,0.00366211,0.0101135,
1624,0.0170898,0.0101318,
1626,0.00610352,0.0100159,
1628,-0.0109863,0.0101257,
1630,-0.00610352,0.0100037,
1632,-0.0158691,0.010022,
1634,-0.00610352,0.0100464,
1636,-0.0231934,0.0101257,
1638,-0.0268555,0.0103333,
1640,-0.0128174,0.0104614,
1642,-0.0213623,0.010498,
1644,-0.00488281,0.0105103,
1646,-0.00915527,0.0105835,
1648,-0.00244141,0.0104248,
1650,-0.0012207,0.0103882,
1652,-0.00610352,0.0103882,
1654,-0.00183105,0.0103455,
1656,-0.0183105,0.0105103,
1658,-0.020752,0.0106384,
1660,0.00427246,0.0105347,
1662,-0.0195313,0.010614,
1664,-0.0195313,0.0106628,
1666,-0.0115967,0.0107666,
1668,-0.0140381,0.0107361,
1670,-0.0109863,0.0106262,
1672,-0.00610352,0.0105591,
1674,-0.00183105,0.0105469,
1676,-0.00183105,0.0104675,
1678,-0.00366211,0.0104675,
1680,-0.00793457,0.0105469,
1682,-0.00976563,0.0105896,
1684,0.00915527,0.0105652,
1686,-0.0115967,0.0106079,
1688,-0.00427246,0.0105286,
1690,-0.00976563,0.0103943,
1692,-0.0238037,0.0103882,
1694,-0.0219727,0.0105469,
1696,-0.00549316,0.0104187,
1698,-0.00793457,0.0103699,
1700,-0.0201416,0.0103271,
1702,-0.020752,0.0104187,
1704,-0.00305176,0.0103455,
1706,-0.00915527,0.0104004,
1708,0.00244141,0.0103516,
1710,-0.00488281,0.0103149,
1712,-0.0189209,0.0104065,
1714,0.012207,0.0104309,
1716,0.0152588,0.0104309,
1718,-0.00549316,0.010437,
1720,-0.00427246,0.0104309,
1722,-0.022583,0.0105469,
1724,-0.00244141,0.0105408,
1726,-0.0170898,0.0105835,
1728,-0.0189209,0.0105652,
1730,-0.0238037,0.0106384,
1732,-0.0286865,0.0108459,
1734,-0.012207,0.0109436,
1736,-0.022583,0.0111511,
1738,-0.0146484,0.0112366,
1740,-0.000610352,0.0111084,
1742,-0.0183105,0.0112549,
1744,-0.0109863,0.0113586,
1746,-0.00427246,0.0113403,
1748,0,0.0112793,
1750,-0.00915527,0.0112915,
1752,-0.0250244,0.011377,
1754,0,0.0111633,
1756,-0.000610352,0.0111572,
1758,0.0115967,0.0110779,
1760,0.00183105,0.0108276,
1762,0.0109863,0.0107422,
1764,-0.0146484,0.0107666,
1766,-0.0128174,0.0108154,
1768,0.0109863,0.0108337,
1770,-0.00244141,0.0105103,
1772,-0.012207,0.010553,
1774,-0.0268555,0.0106689,
1776,-0.0280762,0.0106934,
1778,-0.0152588,0.0107788,
1780,-0.00915527,0.0106628,
1782,-0.00793457,0.0104187,
1784,-0.00732422,0.0104736,
1786,-0.0146484,0.0105347,
1788,-0.010376,0.0106201,
1790,-0.00976563,0.0106201,
1792,-0.0115967,0.0106628,
1794,-0.000610352,0.0106628,
1796,-0.0012207,0.0105896,
1798,-0.00244141,0.0105957,
1800,-0.00671387,0.0106384,
1802,-0.00976563,0.0106873,
1804,-0.00671387,0.0107056,
1806,-0.00244141,0.0106506,
1808,0,0.0105957,
1810,-0.0183105,0.0107483,
1812,-0.00915527,0.0107849,
1814,-0.00305176,0.0107239,
1816,-0.0219727,0.0108521,
1818,-0.0164795,0.0109009,
1820,-0.00610352,0.0109192,
1822,-0.000610352,0.0108887,
1824,-0.0152588,0.0108704,
1826,-0.0244141,0.0110535,
1828,-0.0158691,0.0111023,
1830,-0.0115967,0.0111572,
1832,-0.00671387,0.0110657,
1834,0,0.0110046,
1836,-0.0201416,0.0109741,
1838,-0.0140381,0.0108459,
1840,-0.00427246,0.0107605,
1842,-0.00427246,0.0105896,
1844,-0.0152588,0.0106934,
1846,-0.0109863,0.0107117,
1848,-0.012207,0.0108093,
1850,-0.0256348,0.0110535,
1852,0.0128174,0.0111206,
1854,-0.00183105,0.0111206,
1856,-0.00793457,0.0110168,
1858,-0.0109863,0.0109192,
1860,-0.00610352,0.0109375,
1862,0.00915527,0.0108337,
1864,0.00793457,0.0107178,
1866,-0.022583,0.0108276,
1868,-0.00793457,0.0107666,
1870,-0.00976563,0.0107544,
1872,-0.00671387,0.0107605,
1874,0.00427246,0.0107849,
1876,-0.0134277,0.0109009,
1878,-0.00305176,0.0108948,
1880,0.0012207,0.0108276,
1882,-0.00793457,0.0108093,
1884,0.0231934,0.0109497,
1886,-0.00610352,0.0108948,
1888,-0.00854492,0.0109375,
1890,-0.00244141,0.0108643,
1892,-0.00183105,0.0106445,
1894,-0.00488281,0.0104736,
1896,-0.0219727,0.0106384,
1898,-0.012207,0.0106812,
1900,-0.00244141,0.0105042,
1902,-0.0158691,0.0104553,
1904,0.00183105,0.0104431,
1906,0,0.0103516,
1908,-0.00488281,0.010376,
1910,-0.012207,0.0104492,
1912,-0.012207,0.0103821,
1914,0.000610352,0.0102661,
1916,-0.022583,0.0103394,
1918,-0.012207,0.0104065,
1920,-0.0256348,0.0106201,
1922,-0.00976563,0.0104919,
1924,-0.0195313,0.0106628,
1926,-0.00732422,0.0105652,
1928,0.0012207,0.0103882,
1930,0.00976563,0.0102478,
1932,-0.0140381,0.0101013,
1934,-0.012207,0.0101013,
1936,-0.00854492,0.00996094,
1938,-0.00793457,0.0098938,
1940,-0.0158691,0.0100464,
1942,-0.0128174,0.00999146,
1944,-0.00854492,0.00996704,
1946,-0.0183105,0.0101074,
1948,-0.010376,0.0102112,
1950,-0.00976563,0.0102173,
1952,0.00305176,0.00999756,
1954,-0.0109863,0.0101074,
1956,-0.0146484,0.0102478,
1958,-0.00183105,0.0101501,
1960,-0.00366211,0.0101685,
1962,-0.00366211,0.0100952,
1964,-0.0183105,0.0101318,
1966,-0.012207,0.0101257,
1968,0.00671387,0.010083,
1970,-0.010376,0.0101624,
1972,-0.0134277,0.0101746,
1974,-0.00183105,0.00992432,
1976,-0.00549316,0.00969849,
1978,-0.00671387,0.00961304,
1980,-0.00671387,0.00958862,
1982,-0.0128174,0.00963745,
1984,-0.0134277,0.00969849,
1986,-0.0146484,0.00969849,
1988,-0.00244141,0.00961914,
1990,-0.00427246,0.00956421,
1992,-0.032959,0.00977783,
1994,-0.0146484,0.00991821,
1996,-0.00732422,0.00997925,
1998,0.000610352,0.00996094,
2000,-0.0177002,0.0100708,
2002,-0.0109863,0.010083,
2004,-0.00854492,0.0101013,
2006,-0.0146484,0.0102234,
2008,-0.00915527,0.0103149,
2010,-0.00549316,0.0101868,
2012,-0.0109863,0.0102051,
2014,-0.00427246,0.0102173,
2016,-0.0170898,0.0101685,
2018,-0.00854492,0.0100891,
2020,-0.010376,0.0101318,
2022,-0.00793457,0.0102051,
2024,-0.00976563,0.0101501,
2026,-0.0152588,0.0100586,
2028,-0.00183105,0.00991821,
2030,-0.012207,0.00992432,
2032,-0.00183105,0.00987549,
2034,-0.00549316,0.00993042,
2036,-0.0115967,0.00984497,
2038,-0.00610352,0.00976563,
2040,0.00244141,0.00974731,
2042,-0.00427246,0.00974731,
2044,-0.00366211,0.00963135,
2046,0.00488281,0.00957031,
2048,0.00610352,0.00950928,
2050,0.0244141,0.00949707,
2052,-0.00671387,0.00943604,
2054,-0.00732422,0.00949097,
2056,0.00610352,0.00947266,
2058,-0.0109863,0.00947266,
2060,-0.0164795,0.00957642,
2062,-0.0219727,0.00970459,
2064,-0.0286865,0.00991211,
2066,-0.0256348,0.00994263,
2068,-0.0146484,0.0100098,
2070,-0.0134277,0.0100464,
2072,0.00915527,0.0100708,
2074,-0.0134277,0.0101624,
2076,-0.0177002,0.0102051,
2078,0.000610352,0.0101807,
2080,-0.0177002,0.0103455,
2082,-0.0140381,0.0104065,
2084,-0.00793457,0.0102539,
2086,-0.0299072,0.0104919,
2088,-0.0195313,0.0106018,
2090,-0.010376,0.0106812,
2092,-0.0140381,0.0108032,
2094,-0.00610352,0.0108154,
2096,-0.00488281,0.0106445,
2098,0.00427246,0.0105652,
2100,0.0158691,0.0106995,
2102,0.00793457,0.0106201,
2104,0.00305176,0.0106323,
2106,-0.0012207,0.0106445,
2108,-0.00183105,0.010614,
2110,0,0.0104919,
2112,-0.000610352,0.010376,
2114,-0.0268555,0.0106384,
2116,-0.0305176,0.0107178,
2118,-0.0280762,0.0108765,
2120,-0.0244141,0.0108643,
2122,-0.0128174,0.0108948,
2124,-0.020752,0.010907,
2126,-0.0280762,0.0111145,
2128,-0.0189209,0.0112915,
2130,-0.00793457,0.0112732,
2132,-0.0158691,0.0112915,
2134,-0.0115967,0.0112854,
2136,0.000610352,0.0112061,
2138,-0.00610352,0.0111877,
2140,-0.00549316,0.011084,
2142,-0.000610352,0.0109619,
2144,-0.00244141,0.0109009,
2146,-0.00976563,0.0108154,
2148,0,0.0107117,
2150,-0.00671387,0.0106812,
2152,-0.0115967,0.0107666,
2154,-0.0213623,0.0108704,
2156,-0.0115967,0.0108398,
2158,-0.00671387,0.0108887,
2160,-0.0140381,0.0109924,
2162,-0.00976563,0.0110535,
2164,-0.0115967,0.0109863,
2166,-0.0195313,0.0110596,
2168,-0.00549316,0.0110474,
2170,-0.010376,0.0110474,
2172,-0.010376,0.0110168,
2174,-0.0146484,0.011145,
2176,0.00244141,0.0111145,
2178,-0.00915527,0.0111389,
2180,-0.00732422,0.011145,
2182,0.00305176,0.0110474,
2184,0.00549316,0.010968,
2186,0.00549316,0.0108765,
2188,-0.00671387,0.0109192,
2190,0.0012207,0.0108887,
2192,-0.0164795,0.0107239,
2194,0.0268555,0.0108459,
2196,0.00671387,0.0108398,
2198,0.00793457,0.0109131,
2200,-0.0231934,0.010968,
2202,-0.00610352,0.0109192,
2204,-0.0012207,0.0108459,
2206,-0.00793457,0.0107788,
2208,-0.010376,0.010791,
2210,-0.0274658,0.0110107,
2212,-0.0219727,0.0111206,
2214,-0.0183105,0.011261,
2216,-0.0292969,0.0113831,
2218,-0.0177002,0.0114746,
2220,-0.0134277,0.0115051,
2222,0.00427246,0.0114685,
2224,-0.00915527,0.0114624,
2226,-0.00244141,0.0113342,
2228,-0.0128174,0.0114441,
2230,-0.00976563,0.0114197,
2232,-0.00366211,0.011438,
2234,0.00854492,0.0114685,
2236,-0.0109863,0.0114624,
2238,-0.0201416,0.0116028,
2240,-0.010376,0.0116821,
2242,-0.00366211,0.011676,
2244,-0.00732422,0.0117126,
2246,0.00183105,0.0116821,
2248,-0.00305176,0.0116516,
2250,-0.0170898,0.0115784,
2252,0.00610352,0.0115723,
2254,0,0.011499,
2256,-0.0109863,0.0115479,
2258,-0.00366211,0.0114746,
2260,-0.0115967,0.0114258,
2262,-0.0183105,0.0113892,
2264,-0.00427246,0.011145,
2266,-0.0140381,0.0110291,
2268,-0.00488281,0.0109314,
2270,-0.0158691,0.0109558,
2272,-0.00305176,0.0108948,
2274,-0.000610352,0.0107666,
2276,-0.0195313,0.0107849,
2278,0.010376,0.0108826,
2280,0.00305176,0.0107361,
2282,-0.00244141,0.0106201,
2284,0.00427246,0.0105835,
2286,0.00366211,0.010321,
2288,-0.0177002,0.0103027,
2290,0.00793457,0.0102783,
2292,-0.00915527,0.0102295,
2294,-0.0146484,0.0103149,
2296,-0.00610352,0.0103271,
2298,-0.00366211,0.010321,
2300,-0.0170898,0.0103333,
2302,-0.022583,0.0104797,
2304,-0.0115967,0.0105652,
2306,-0.0140381,0.0106934,
2308,-0.00976563,0.0107727,
2310,-0.0195313,0.010968,
2312,-0.0183105,0.011145,
2314,-0.0140381,0.0110168,
2316,-0.00732422,0.0107849,
2318,-0.0170898,0.010675,
2320,-0.00976563,0.0105286,
2322,0.010376,0.0105042,
2324,0.00427246,0.0103394,
2326,-0.0189209,0.0102478,
2328,0.0012207,0.0100708,
2330,0.00305176,0.010022,
2332,-0.00427246,0.00990601,
2334,-0.00244141,0.00981445,
2336,-0.0189209,0.00999756,
2338,0.0134277,0.0100708,
2340,0.010376,0.0101196,
2342,-0.0115967,0.0102295,
2344,-0.00183105,0.0102234,
2346,-0.00183105,0.010144,
2348,-0.00549316,0.010199,
2350,-0.0183105,0.0103149,
2352,0.00183105,0.0102173,
2354,0.00305176,0.0100342,
2356,-0.00549316,0.00997314,
2358,-0.0152588,0.0100586,
2360,-0.0274658,0.0101929,
2362,-0.0170898,0.0102661,
2364,0.00549316,0.0102051,
2366,-0.012207,0.0101318,
2368,-0.0164795,0.0102417,
2370,-0.0128174,0.0102661,
2372,-0.00244141,0.0101868,
2374,-0.000610352,0.0100464,
2376,-0.0189209,0.0102112,
2378,-0.000610352,0.0101257,
2380,0.00244141,0.0100769,
2382,-0.000610352,0.0100525,
2384,-0.0170898,0.0101685,
2386,-0.0146484,0.01026,
2388,-0.0158691,0.0103516,
2390,-0.0152588,0.0104919,
2392,-0.012207,0.0104492,
2394,-0.0115967,0.0102966,
2396,-0.00671387,0.0102966,
2398,-0.00976563,0.0103149,
2400,0.000610352,0.0100891,
2402,-0.00854492,0.0101135,
2404,-0.00732422,0.0101746,
2406,-0.00854492,0.0101807,
2408,0.00793457,0.0101563,
2410,-0.00305176,0.00991211,
2412,0.00305176,0.0097229,
2414,-0.00183105,0.00955811,
2416,-0.00366211,0.00930176,
2418,-0.00976563,0.00922241,
2420,-0.010376,0.00919189,
2422,0.00366211,0.00918579,
2424,0.0109863,0.0092041,
2426,-0.0305176,0.00948486,
2428,-0.0115967,0.00947266,
2430,-0.00793457,0.00945435,
2432,-0.000610352,0.00942383,
2434,0.00244141,0.00936279,
2436,-0.0012207,0.00926514,
2438,-0.0231934,0.00929565,
2440,-0.00732422,0.00926514,
2442,0.00366211,0.00926514,
2444,-0.00915527,0.00928345,
2446,-0.0250244,0.00951538,
2448,-0.00366211,0.00952148,
2450,0.00610352,0.00941162,
2452,0.00427246,0.00939331,
2454,-0.0140381,0.00953369,
2456,0.00488281,0.00947266,
2458,0.00793457,0.00951538,
2460,0.0292969,0.00969238,
2462,0.0146484,0.00965576,
2464,-0.0164795,0.00977783,
2466,-0.0170898,0.00980835,
2468,0.00793457,0.00983887,
2470,-0.0183105,0.00986328,
2472,-0.0177002,0.0100098,
2474,-0.020752,0.0102112,
2476,-0.0341797,0.0103577,
2478,-0.0146484,0.0104004,
2480,-0.0231934,0.0106018,
2482,-0.0268555,0.0108459,
2484,-0.00732422,0.0108765,
2486,-0.00915527,0.0109314,
2488,-0.00549316,0.0108093,
2490,-0.010376,0.0108337,
2492,-0.0146484,0.0108887,
2494,-0.00610352,0.0108032,
2496,0.0012207,0.0107544,
2498,-0.00366211,0.0107544,
2500,-0.0012207,0.0105957,
2502,-0.0140381,0.0105103,
2504,-0.00488281,0.0104431,
2506,0.00610352,0.0103638,
2508,-0.00427246,0.0103088,
2510,0.00305176,0.010144,
2512,-0.0115967,0.0100769,
2514,-0.00976563,0.0100342,
2516,-0.00549316,0.0100159,
2518,-0.000610352,0.00985107,
2520,-0.0250244,0.0100037,
2522,-0.012207,0.010022,
2524,-0.0115967,0.0100952,
2526,-0.0189209,0.0100952,
2528,-0.0109863,0.0101929,
2530,-0.0109863,0.0102722,
2532,-0.00183105,0.0102478,
2534,0.00366211,0.01026,
2536,-0.00427246,0.0101135,
2538,-0.000610352,0.00998535,
2540,0.00488281,0.00993042,
2542,0.012207,0.00993652,
2544,0.00854492,0.0100037,
2546,-0.0115967,0.0101013,
2548,-0.00610352,0.0101074,
2550,0.0012207,0.00993652,
2552,-0.00366211,0.00995483,
2554,-0.0177002,0.0101013,
2556,-0.0128174,0.0101746,
2558,-0.0189209,0.0102112,
2560,-0.00305176,0.00996704,
2562,-0.0189209,0.00998535,
2564,-0.0109863,0.0100403,
2566,-0.0177002,0.0100952,
2568,-0.00671387,0.00999756,
2570,-0.0183105,0.0100525,
2572,-0.00793457,0.0101074,
2574,-0.00915527,0.0101929,
2576,-0.00366211,0.0100403,
2578,-0.00549316,0.0100891,
2580,0.00732422,0.0101379,
2582,-0.000610352,0.0101379,
2584,0.00732422,0.0100403,
2586,-0.0128174,0.010022,
2588,-0.00976563,0.00996094,
2590,0.00793457,0.0098877,
2592,-0.00183105,0.00978394,
2594,-0.00793457,0.00974731,
2596,-0.0354004,0.0100342,
2598,-0.0189209,0.0101257,
2600,-0.0158691,0.0102783,
2602,-0.00244141,0.0102173,
2604,-0.0140381,0.0102844,
2606,-0.0219727,0.0104187,
2608,-0.0170898,0.0105103,
2610,-0.0170898,0.0106506,
2612,-0.00854492,0.0107056,
2614,0.00671387,0.0107544,
2616,-0.0109863,0.0108276,
2618,-0.010376,0.0108337,
2620,0.00610352,0.010791,
2622,-0.00671387,0.0108215,
2624,0.000610352,0.0107178,
2626,-0.0152588,0.0105652,
2628,-0.0012207,0.0104614,
2630,0.00366211,0.0104187,
2632,-0.00549316,0.0104675,
2634,-0.0201416,0.0106445,
2636,-0.000610352,0.0106384,
2638,-0.0109863,0.0105164,
2640,0.00305176,0.0104736,
2642,-0.00610352,0.010498,
2644,-0.00427246,0.0104492,
2646,-0.0134277,0.0103333,
2648,0.00183105,0.0103149,
2650,-0.00671387,0.010321,
2652,-0.00915527,0.0103699,
2654,-0.0256348,0.0104858,
2656,-0.0213623,0.0106506,
2658,-0.0177002,0.0107483,
2660,-0.020752,0.0106628,
2662,-0.0140381,0.0106567,
2664,-0.0311279,0.0108032,
2666,-0.0317383,0.0109497,
2668,-0.00915527,0.0109619,
2670,-0.00732422,0.0108521,
2672,-0.00305176,0.0107056,
2674,-0.00915527,0.0105896,
2676,-0.00549316,0.0103027,
2678,-0.0012207,0.0101685,
2680,0.00305176,0.00996704,
2682,0.00610352,0.00975952,
2684,-0.00610352,0.00974731,
2686,-0.0115967,0.00977173,
2688,0.00366211,0.00975342,
2690,-0.00244141,0.00967407,
2692,-0.00366211,0.00956421,
2694,0,0.00950317,
2696,-0.0115967,0.00960693,
2698,-0.00549316,0.00962524,
2700,0.0170898,0.00978394,
2702,-0.0012207,0.00965576,
2704,-0.00793457,0.00968628,
2706,-0.00732422,0.00969849,
2708,0.00183105,0.00967407,
2710,-0.0146484,0.00979004,
2712,-0.012207,0.00979614,
2714,-0.00976563,0.00979614,
2716,-0.0177002,0.00991821,
2718,-0.00915527,0.0100037,
2720,0.00244141,0.00977783,
2722,-0.00183105,0.00967407,
2724,-0.000610352,0.00956421,
2726,-0.00915527,0.00946655,
2728,-0.00366211,0.00939331,
2730,0,0.00928345,
2732,-0.00427246,0.00930786,
2734,-0.0109863,0.0093811,
2736,-0.0231934,0.00957031,
2738,-0.0109863,0.00967407,
2740,-0.0146484,0.00977173,
2742,-0.010376,0.00975342,
2744,-0.0109863,0.00977783,
2746,-0.0177002,0.00983887,
2748,-0.0109863,0.0098877,
2750,-0.00854492,0.00996094,
2752,0.00244141,0.00994873,
2754,-0.0189209,0.00996094,
2756,-0.00244141,0.00985718,
2758,0.0244141,0.00991211,
2760,-0.00854492,0.00996704,
2762,-0.0177002,0.00995483,
2764,-0.00976563,0.00994263,
2766,0.00183105,0.00978394,
2768,0.00183105,0.00973511,
2770,-0.0177002,0.009729,
2772,-0.0164795,0.00981445,
2774,-0.0177002,0.0098999,
2776,-0.00610352,0.00992432,
2778,-0.00915527,0.00996094,
2780,-0.00549316,0.00994263,
2782,-0.0140381,0.0100769,
2784,-0.00671387,0.0100708,
2786,-0.00488281,0.00999146,
2788,-0.0012207,0.00990601,
2790,0.00244141,0.00985107,
2792,-0.00427246,0.00987549,
2794,-0.00976563,0.0098938,
2796,-0.00793457,0.00961914,
2798,-0.010376,0.00953369,
2800,-0.0115967,0.00949097,
2802,-0.0109863,0.00957642,
2804,-0.0238037,0.00967407,
2806,-0.0250244,0.00970459,
2808,-0.0201416,0.00973511,
2810,-0.0189209,0.00975342,
2812,-0.0189209,0.00985718,
2814,-0.00488281,0.00983887,
2816,0.00183105,0.00974731,
2818,0.00732422,0.0097168,
2820,0.00488281,0.00970459,
2822,-0.00976563,0.00973511,
2824,-0.0250244,0.00997925,
2826,0,0.00982666,
2828,0.00183105,0.00983276,
2830,-0.022583,0.010022,
2832,-0.022583,0.0101929,
2834,-0.0195313,0.0101868,
2836,-0.0177002,0.0103577,
2838,-0.00732422,0.010321,
2840,-0.00244141,0.0103149,
2842,-0.012207,0.010376,
2844,-0.00549316,0.0103882,
2846,-0.0128174,0.0103821,
2848,-0.0012207,0.010376,
2850,-0.0158691,0.0104675,
2852,-0.012207,0.010498,
2854,-0.00732422,0.0103149,
2856,-0.010376,0.0102051,
2858,-0.00366211,0.0100647,
2860,-0.0158691,0.0100159,
2862,-0.00244141,0.0098999,
2864,0.00732422,0.00966187,
2866,0.00427246,0.00938721,
2868,-0.0195313,0.00949097,
2870,-0.00793457,0.00949707,
2872,-0.00488281,0.00951538,
2874,-0.00427246,0.00946655,
2876,-0.000610352,0.00941772,
2878,-0.0115967,0.00952148,
2880,-0.0134277,0.00962524,
2882,-0.00488281,0.00961304,
2884,-0.012207,0.00967407,
2886,-0.0115967,0.00967407,
2888,0.00183105,0.00965576,
2890,-0.020752,0.00983887,
2892,-0.00671387,0.00986938,
2894,0.00366211,0.00990601,
2896,-0.00854492,0.00987549,
2898,-0.0146484,0.00996704,
2900,-0.0115967,0.00991211,
2902,-0.00610352,0.00996094,
2904,0.0177002,0.0100586,
2906,-0.00427246,0.0100281,
2908,-0.00854492,0.0100952,
2910,-0.0244141,0.0101929,
2912,-0.0177002,0.0102478,
2914,-0.00427246,0.0101929,
2916,-0.00793457,0.0100952,
2918,-0.00488281,0.0100525,
2920,-0.00976563,0.0101257,
2922,-0.0109863,0.0102173,
2924,0,0.0102112,
2926,-0.00427246,0.0101624,
2928,0.0012207,0.0101379,
2930,0.00976563,0.0102356,
2932,-0.00976563,0.0102905,
2934,-0.010376,0.0102844,
2936,0.00183105,0.0100708,
2938,-0.00732422,0.0100342,
2940,-0.0170898,0.0100586,
2942,-0.0170898,0.0101257,
2944,0.00427246,0.0100586,
2946,-0.00183105,0.0098999,
2948,-0.0152588,0.00994263,
2950,-0.0152588,0.0100098,
2952,0.00244141,0.0100098,
2954,-0.012207,0.00994263,
2956,-0.00793457,0.00999756,
2958,-0.00183105,0.00977173,
2960,-0.00244141,0.00971069,
2962,-0.00854492,0.00961914,
2964,-0.00671387,0.00958862,
2966,-0.0012207,0.00958252,
2968,0.00488281,0.00961304,
2970,-0.00549316,0.00949097,
2972,-0.00183105,0.00934448,
2974,-0.00244141,0.00919189,
2976,0.00366211,0.00916748,
2978,0.0317383,0.00939331,
2980,-0.00610352,0.00939941,
2982,-0.0164795,0.00942383,
2984,0.00427246,0.00939941,
2986,-0.00244141,0.009375,
2988,-0.00488281,0.00941162,
2990,-0.0280762,0.00966797,
2992,-0.0201416,0.00982666,
2994,-0.0152588,0.00988159,
2996,-0.0201416,0.0100037,
2998,-0.0299072,0.010199,
3000,-0.00183105,0.0101013,
3002,0.00244141,0.0100159,
3004,-0.00976563,0.00987549,
3006,0.00305176,0.00965576,
3008,-0.00671387,0.00952148,
3010,-0.0109863,0.00944214,
3012,-0.010376,0.00935669,
3014,-0.00732422,0.0093811,
3016,-0.00671387,0.00942993,
3018,-0.00732422,0.00942993,
3020,-0.0262451,0.00964355,
3022,-0.0140381,0.00968628,
3024,-0.00244141,0.00946045,
3026,0.0152588,0.00961304,
3028,-0.00549316,0.00964966,
3030,0.00183105,0.00944214,
3032,0.00183105,0.00923462,
3034,-0.00366211,0.00907593,
3036,-0.022583,0.00912476,
3038,-0.00671387,0.00911865,
3040,-0.00488281,0.00914307,
3042,-0.0286865,0.00930786,
3044,-0.0134277,0.00938721,
3046,-0.0134277,0.00939331,
3048,-0.0183105,0.00956421,
3050,-0.00732422,0.00947876,
3052,0.0012207,0.0093689,
3054,0.00183105,0.00931396,
3056,-0.0012207,0.00922241,
3058,0.00976563,0.00928345,
3060,-0.00549316,0.00917969,
3062,-0.00305176,0.00918579,
3064,0.0012207,0.00912476,
3066,-0.00366211,0.00911865,
3068,-0.0170898,0.00909424,
3070,-0.00488281,0.00906372,
3072,-0.012207,0.00913696,
3074,-0.00915527,0.00918579,
3076,-0.0244141,0.00942383,
3078,-0.0170898,0.00947876,
3080,0.00671387,0.00941162,
3082,-0.0189209,0.009552,
3084,-0.00305176,0.00946045,
3086,-0.0152588,0.00949707,
3088,-0.00305176,0.00950928,
3090,-0.00610352,0.00936279,
3092,-0.00183105,0.00931396,
3094,0.00549316,0.00933228,
3096,-0.00488281,0.00929565,
3098,-0.00671387,0.00921631,
3100,0.0012207,0.00911255,
3102,0.00915527,0.00914307,
3104,0.0189209,0.00915527,
3106,-0.00305176,0.00914307,
3108,-0.00610352,0.00911865,
3110,-0.010376,0.00897827,
3112,0.0115967,0.00891724,
3114,-0.00427246,0.00891724,
3116,-0.0183105,0.009021,
3118,-0.0109863,0.00908203,
3120,-0.00793457,0.00906372,
3122,0.00183105,0.00897217,
3124,0.00305176,0.00900269,
3126,-0.0341797,0.00930176,
3128,-0.0134277,0.00942383,
3130,-0.00854492,0.00941162,
3132,-0.00671387,0.0093811,
3134,-0.022583,0.00950317,
3136,-0.0268555,0.00975342,
3138,-0.0189209,0.00986938,
3140,-0.0158691,0.00985718,
3142,-0.00732422,0.00975952,
3144,-0.0128174,0.00984497,
3146,-0.00244141,0.00985107,
3148,0.00488281,0.00974731,
3150,-0.012207,0.0097168,
3152,0.00244141,0.0097168,
3154,0.00427246,0.00963745,
3156,-0.0012207,0.00957031,
3158,-0.0012207,0.00956421,
3160,-0.000610352,0.0095459,
3162,0.00549316,0.00951538,
3164,-0.0128174,0.00957642,
3166,-0.00488281,0.00961304,
3168,0.00183105,0.00958252,
3170,-0.00610352,0.00958862,
3172,-0.0189209,0.00975952,
3174,-0.00854492,0.00982056,
3176,-0.00915527,0.00987549,
3178,-0.00427246,0.00960083,
3180,-0.00854492,0.00962524,
3182,-0.010376,0.00956421,
3184,-0.0012207,0.00953369,
3186,-0.0164795,0.00967407,
3188,-0.00427246,0.00966797,
3190,-0.00305176,0.00941772,
3192,-0.00793457,0.00929565,
3194,-0.0128174,0.00927124,
3196,-0.0164795,0.00923462,
3198,-0.0128174,0.00906372,
3200,-0.0109863,0.00915527,
3202,0,0.00913086,
3204,-0.000610352,0.00903931,
3206,0.00671387,0.00907593,
3208,0.00854492,0.00909424,
3210,-0.0146484,0.00913086,
3212,-0.010376,0.00913086,
3214,0.00793457,0.00913696,
3216,-0.0109863,0.00917969,
3218,-0.00671387,0.00917358,
3220,-0.0274658,0.00918579,
3222,-0.0115967,0.00916138,
3224,-0.00610352,0.009198,
3226,-0.0170898,0.00921631,
3228,-0.0012207,0.00917358,
3230,0.0134277,0.00928955,
3232,-0.00732422,0.00934448,
3234,0.00244141,0.00933228,
3236,-0.00732422,0.00917969,
3238,-0.00610352,0.00917358,
3240,-0.00671387,0.00919189,
3242,-0.0109863,0.00901489,
3244,-0.0231934,0.00911255,
3246,-0.0201416,0.00917969,
3248,-0.00610352,0.00905762,
3250,-0.010376,0.00908813,
3252,-0.0134277,0.00921021,
3254,-0.00976563,0.00928955,
3256,-0.00915527,0.0093689,
3258,0.00244141,0.00929565,
3260,0.000610352,0.00924683,
3262,0.00793457,0.00929565,
3264,-0.0140381,0.00942383,
3266,-0.0231934,0.00961914,
3268,0.00488281,0.00949707,
3270,-0.00915527,0.00953979,
3272,-0.0128174,0.0095459,
3274,-0.00610352,0.00951538,
3276,-0.00915527,0.00936279,
3278,-0.00366211,0.00922852,
3280,-0.00427246,0.0092041,
3282,-0.00244141,0.00903931,
3284,-0.00976563,0.00910645,
3286,-0.0012207,0.00896606,
3288,-0.0012207,0.00894775,
3290,-0.00854492,0.00897217,
3292,-0.00915527,0.00904541,
3294,-0.00366211,0.0090271,
3296,-0.0177002,0.00915527,
3298,-0.0012207,0.00910034,
3300,0.00671387,0.00915527,
3302,-0.00305176,0.00909424,
3304,-0.0140381,0.00904541,
3306,-0.00305176,0.00904541,
3308,-0.00488281,0.0090332,
3310,-0.00854492,0.00901489,
3312,-0.00244141,0.00892334,
3314,-0.00854492,0.00896606,
3316,-0.0177002,0.00895996,
3318,-0.00549316,0.00890503,
3320,-0.0238037,0.00906372,
3322,-0.00549316,0.00910034,
3324,-0.00915527,0.00916138,
3326,-0.0195313,0.00901489,
3328,-0.00366211,0.00891724,
3330,0.00183105,0.0088501,
3332,-0.0256348,0.00903931,
3334,-0.000610352,0.00881958,
3336,-0.00732422,0.00862427,
3338,-0.010376,0.00853882,
3340,-0.00854492,0.00846558,
3342,-0.020752,0.00859985,
3344,-0.012207,0.00859375,
3346,-0.0164795,0.00873413,
3348,-0.00854492,0.00877075,
3350,-0.0012207,0.00866089,
3352,-0.0195313,0.00883179,
3354,0.00671387,0.0088562,
3356,0.012207,0.00896606,
3358,0.00610352,0.00901489,
3360,-0.00732422,0.00908203,
3362,-0.00305176,0.00905762,
3364,-0.012207,0.00905151,
3366,-0.0128174,0.00913086,
3368,-0.0244141,0.00935669,
3370,-0.0115967,0.00941162,
3372,-0.00671387,0.00928955,
3374,-0.0299072,0.00950317,
3376,-0.0219727,0.00963135,
3378,0,0.00958862,
3380,-0.000610352,0.00950928,
3382,-0.00732422,0.00947876,
3384,0.00183105,0.00948486,
3386,0.00305176,0.00935059,
3388,-0.022583,0.00953369,
3390,-0.0109863,0.00961304,
3392,-0.00671387,0.00960083,
3394,-0.0152588,0.00962524,
3396,-0.000610352,0.00946655,
3398,-0.0164795,0.00950317,
3400,-0.0201416,0.00959473,
3402,-0.0189209,0.00978394,
3404,-0.0158691,0.00993652,
3406,-0.0146484,0.0100159,
3408,-0.00549316,0.00998535,
3410,-0.0140381,0.00997925,
3412,-0.00244141,0.0098999,
3414,-0.0189209,0.0100098,
3416,-0.00610352,0.00996094,
3418,0.012207,0.0100159,
3420,-0.00366211,0.00977783,
3422,-0.00366211,0.00969849,
3424,-0.00671387,0.00970459,
3426,-0.00488281,0.00958252,
3428,-0.000610352,0.00957642,
3430,-0.00854492,0.00952759,
3432,-0.00915527,0.0095459,
3434,-0.00793457,0.00960083,
3436,-0.0128174,0.00965576,
3438,-0.0231934,0.00982666,
3440,-0.0134277,0.0098938,
3442,-0.0244141,0.0100281,
3444,-0.00915527,0.0098877,
3446,-0.00793457,0.00976563,
3448,-0.020752,0.00991211,
3450,-0.0134277,0.00994263,
3452,0.00976563,0.00990601,
3454,0.00427246,0.00985107,
3456,-0.00671387,0.00982666,
3458,-0.0109863,0.00991211,
3460,-0.0134277,0.0100403,
3462,-0.00488281,0.0100098,
3464,-0.0189209,0.0100586,
3466,-0.0189209,0.0100159,
3468,0.0012207,0.00997925,
3470,-0.0213623,0.0101013,
3472,-0.010376,0.0100769,
3474,-0.00854492,0.0101013,
3476,-0.00793457,0.0100891,
3478,0,0.0100525,
3480,-0.0012207,0.010022,
3482,-0.0183105,0.0101807,
3484,-0.00244141,0.0101074,
3486,-0.010376,0.010199,
3488,-0.00366211,0.0102234,
3490,-0.0128174,0.0102661,
3492,0.00183105,0.0101929,
3494,-0.00610352,0.0102173,
3496,0,0.0100403,
3498,-0.00610352,0.0100891,
3500,-0.0201416,0.0102234,
3502,-0.0115967,0.0103088,
3504,-0.0115967,0.0102844,
3506,-0.0164795,0.0104187,
3508,-0.00488281,0.0104187,
3510,-0.0213623,0.0105469,
3512,-0.0158691,0.0106812,
3514,-0.00244141,0.0106201,
3516,-0.000610352,0.0104492,
3518,-0.00305176,0.0104248,
3520,-0.010376,0.0102905,
3522,0.00366211,0.0102722,
3524,0.00976563,0.0102783,
3526,-0.0012207,0.0100952,
3528,0.0140381,0.010199,
3530,0.0115967,0.0102966,
3532,0.010376,0.010144,
3534,-0.00244141,0.0101624,
3536,0.00793457,0.0101685,
3538,0.00305176,0.0100952,
3540,-0.0372314,0.0103821,
3542,0.00366211,0.0102112,
3544,-0.00366211,0.0101257,
3546,-0.0115967,0.0100769,
3548,-0.0177002,0.0101685,
3550,-0.0262451,0.0104187,
3552,-0.0158691,0.0103821,
3554,-0.000610352,0.010321,
3556,-0.0128174,0.0103271,
3558,-0.00671387,0.0103333,
3560,-0.0250244,0.0105103,
3562,-0.0109863,0.0105896,
3564,-0.0012207,0.0104797,
3566,-0.0268555,0.0106201,
3568,0.00183105,0.0103943,
3570,0.0012207,0.0102905,
3572,0.0012207,0.0102356,
3574,-0.0012207,0.00994873,
3576,0.00183105,0.00974731,
3578,0.00732422,0.00982056,
3580,0.00610352,0.00987549,
3582,-0.0146484,0.00994873,
3584,-0.00610352,0.00999146,
3586,-0.00671387,0.0100281,
3588,-0.00915527,0.0098938,
3590,-0.0238037,0.010022,
3592,-0.00915527,0.0100464,
3594,0,0.0098938,
3596,-0.0128174,0.0100159,
3598,0.0146484,0.00999756,
3600,0.00915527,0.0098877,
3602,0.00549316,0.00975342,
3604,0.00366211,0.00963135,
3606,-0.0164795,0.00964966,
3608,0.00488281,0.00964355,
3610,-0.00610352,0.00956421,
3612,-0.00244141,0.00956421,
3614,-0.0238037,0.00961304,
3616,-0.0164795,0.0097168,
3618,0.00549316,0.00964966,
3620,-0.00915527,0.00970459,
3622,-0.0140381,0.00980835,
3624,0.00976563,0.00983887,
3626,-0.00305176,0.00982056,
3628,0.000610352,0.00982056,
3630,-0.00488281,0.00978394,
3632,0.000610352,0.00969849,
3634,0.00854492,0.00970459,
3636,0.0256348,0.00983276,
3638,0.0219727,0.00982056,
3640,0.0134277,0.00982056,
3642,0.0128174,0.00970459,
3644,0,0.00961304,
3646,-0.00244141,0.00955811,
3648,-0.00854492,0.00943604,
3650,-0.000610352,0.00930786,
3652,-0.0286865,0.00949707,
3654,-0.0360107,0.00981445,
3656,-0.0195313,0.00994263,
3658,-0.0280762,0.0101135,
3660,-0.0170898,0.0101501,
3662,-0.0140381,0.0102417,
3664,0,0.0100525,
3666,-0.00671387,0.00993042,
3668,-0.0231934,0.0101501,
3670,-0.0115967,0.0100525,
3672,-0.00244141,0.00997314,
3674,-0.00732422,0.00996094,
3676,-0.00427246,0.00992432,
3678,0.0146484,0.0100708,
3680,-0.020752,0.0102661,
3682,-0.0146484,0.0102295,
3684,0,0.0102051,
3686,-0.00610352,0.0101624,
3688,0.0231934,0.0103577,
3690,0.00305176,0.01026,
3692,-0.0164795,0.0104065,
3694,-0.0177002,0.0105225,
3696,-0.00244141,0.0105469,
3698,-0.00671387,0.010553,
3700,-0.0250244,0.0106018,
3702,-0.0158691,0.0106445,
3704,-0.0158691,0.0106873,
3706,-0.00793457,0.0106018,
3708,-0.00854492,0.0106384,
3710,-0.0115967,0.0105408,
3712,-0.00488281,0.0104309,
3714,0.0250244,0.0106567,
3716,0,0.0106506,
3718,-0.00305176,0.0106506,
3720,-0.0219727,0.0107666,
3722,-0.00366211,0.0107666,
3724,-0.000610352,0.010675,
3726,0.00610352,0.0107239,
3728,0.0128174,0.0107117,
3730,-0.0158691,0.0107544,
3732,-0.0317383,0.010968,
3734,-0.00366211,0.0109802,
3736,0.00976563,0.0109985,
3738,-0.0170898,0.0111389,
3740,-0.0415039,0.0111816,
3742,-0.0244141,0.0113892,
3744,0,0.0113525,
3746,-0.00976563,0.0113342,
3748,-0.000610352,0.0111633,
3750,0.00488281,0.0109497,
3752,-0.0189209,0.0109802,
3754,-0.0115967,0.0110901,
3756,0.00976563,0.0110596,
3758,0.00610352,0.0110535,
3760,-0.00610352,0.0108643,
3762,-0.0012207,0.0107666,
3764,-0.00671387,0.0108215,
3766,-0.00183105,0.0105713,
3768,0.0268555,0.0108215,
3770,0.000610352,0.0108154,
3772,0.000610352,0.0108093,
3774,0.0183105,0.0109802,
3776,-0.00854492,0.0110474,
3778,-0.00915527,0.0110657,
3780,-0.0195313,0.0112,
3782,0.00366211,0.0110901,
3784,0.0250244,0.0112793,
3786,-0.0213623,0.0114258,
3788,-0.0213623,0.0115479,
3790,-0.00183105,0.0113281,
3792,-0.00305176,0.0112671,
3794,0.000610352,0.0112732,
3796,-0.0189209,0.0113342,
3798,-0.0219727,0.0114075,
3800,-0.00427246,0.0113586,
3802,-0.0396729,0.0117004,
3804,-0.0012207,0.011676,
3806,0,0.0115112,
3808,-0.0195313,0.0116577,
3810,0.0012207,0.0116089,
3812,0.0183105,0.0117676,
3814,-0.012207,0.0116516,
3816,-0.0140381,0.0116272,
3818,-0.00732422,0.0116455,
3820,-0.00244141,0.0115784,
3822,0.00549316,0.0114929,
3824,-0.0012207,0.0114075,
3826,-0.0109863,0.0114868,
3828,-0.0109863,0.0115906,
3830,0.0164795,0.0117065,
3832,0.0115967,0.0118164,
3834,0.0378418,0.0121094,
3836,-0.0189209,0.0120422,
3838,0.00366211,0.0118591,
3840,0.0286865,0.0120117,
3842,-0.0134277,0.0120178,
3844,-0.0354004,0.0123718,
3846,-0.020752,0.0125549,
3848,0.00671387,0.0125366,
3850,0.00244141,0.0125549,
3852,-0.0140381,0.0124084,
3854,-0.0134277,0.0121826,
3856,-0.00854492,0.0120728,
3858,0.0195313,0.0119873,
3860,0.0372314,0.0121887,
3862,0.0012207,0.0120605,
3864,0,0.0120605,
3866,-0.0128174,0.0121216,
3868,-0.00671387,0.0119568,
3870,-0.010376,0.0119446,
3872,-0.0378418,0.0122986,
3874,-0.0311279,0.0125366,
3876,-0.0128174,0.0126221,
3878,-0.00305176,0.0125061,
3880,-0.022583,0.0125244,
3882,-0.0299072,0.012677,
3884,-0.0134277,0.0128113,
3886,0.0390625,0.0131409,
3888,0.0372314,0.0132813,
3890,-0.0012207,0.0132629,
3892,-0.0201416,0.0132996,
3894,-0.0183105,0.0133057,
3896,0.0262451,0.0135437,
3898,-0.0268555,0.0137451,
3900,-0.00793457,0.0135742,
3902,-0.0292969,0.0137085,
3904,-0.0408936,0.0139587,
3906,-0.0311279,0.0141907,
3908,-0.020752,0.0143127,
3910,-0.012207,0.0143188,
3912,-0.00549316,0.014325,
3914,-0.012207,0.0141968,
3916,-0.000610352,0.0142029,
3918,-0.00793457,0.0142517,
3920,-0.010376,0.0141357,
3922,-0.0012207,0.0141113,
3924,-0.032959,0.0144348,
3926,-0.0439453,0.0148132,
3928,-0.00488281,0.0147339,
3930,-0.0299072,0.0148743,
3932,-0.0268555,0.0148254,
3934,-0.0250244,0.0150391,
3936,0.0201416,0.0151428,
3938,-0.032959,0.0153015,
3940,-0.057373,0.0154602,
3942,0.0262451,0.0154785,
3944,0.0238037,0.0157166,
3946,-0.0292969,0.0159119,
3948,0.0128174,0.0160339,
3950,-0.0134277,0.0161194,
3952,0.0280762,0.0162109,
3954,0.0219727,0.0163147,
3956,0.00854492,0.0163025,
3958,0.0012207,0.0162537,
3960,-0.0012207,0.0162048,
3962,-0.00244141,0.016217,
3964,-0.0128174,0.0162781,
3966,-0.00305176,0.0162903,
3968,-0.0402832,0.0164246,
3970,-0.0292969,0.0167114,
3972,0.0268555,0.0169739,
3974,-0.0476074,0.0172668,
3976,0.043335,0.0176147,
3978,0.0616455,0.0181396,
3980,0.0335693,0.01828,
3982,0.00183105,0.0182617,
3984,-0.00610352,0.0180725,
3986,-0.000610352,0.017865,
3988,-0.0134277,0.0177856,
3990,-0.000610352,0.0177734,
3992,-0.0506592,0.0182495,
3994,-0.065918,0.0189026,
3996,-0.0561523,0.0192749,
3998,-0.0152588,0.0192078,
4000,-0.0244141,0.0194092,
4002,-0.0164795,0.0191772,
4004,0.00244141,0.0191895,
4006,-0.0244141,0.0194336,
4008,-0.0317383,0.0195557,
4010,0.00610352,0.0196045,
4012,0.00854492,0.0195068,
4014,-0.00976563,0.0194824,
4016,-0.0128174,0.0194702,
4018,0.00366211,0.0194336,
4020,-0.00671387,0.0194763,
4022,0.0286865,0.0197083,
4024,-0.0164795,0.0198608,
4026,-0.00610352,0.019812,
4028,0.00915527,0.0197937,
4030,-0.032959,0.0199585,
4032,-0.0653076,0.0204956,
4034,-0.0183105,0.0203003,
4036,0.00244141,0.0201355,
4038,-0.0415039,0.0205139,
4040,-0.0183105,0.0204102,
4042,0.0317383,0.0205933,
4044,0.0158691,0.0203979,
4046,0.0299072,0.0204895,
4048,0.0140381,0.0205627,
4050,0.0177002,0.0207153,
4052,0.022583,0.0208008,
4054,-0.020752,0.020874,
4056,0.0415039,0.0212036,
4058,0.00427246,0.021051,
4060,-0.0628662,0.0213074,
4062,-0.0317383,0.0216125,
4064,0.012207,0.0217346,
4066,0.00183105,0.0216248,
4068,-0.00244141,0.021582,
4070,-0.0183105,0.0216614,
4072,-0.0292969,0.0215759,
4074,0.0335693,0.0216003,
4076,0.0408936,0.0218811,
4078,-0.0415039,0.0222656,
4080,0.0177002,0.0222168,
4082,-0.0402832,0.0223206,
4084,-0.00915527,0.0222778,
4086,-0.0170898,0.0220581,
4088,-0.0579834,0.0222656,
4090,-0.0274658,0.0225281,
4092,-0.00549316,0.0223816,
4094,-0.0305176,0.0225037,
4096,-0.045166,0.0226929,
4098,-0.0189209,0.0226135,
4100,0.0341797,0.022876,
4102,0.0335693,0.0229187,
4104,-0.0201416,0.0227112,
4106,0.00183105,0.0224182,
4108,0.0158691,0.0223694,
4110,-0.0372314,0.0226196,
4112,0.00854492,0.0226501,
4114,-0.0360107,0.0228882,
4116,-0.0482178,0.0233643,
4118,-0.00305176,0.0233154,
4120,-0.043335,0.023645,
4122,-0.00671387,0.0237,
4124,-0.022583,0.0235962,
4126,-0.022583,0.0233826,
4128,0.000610352,0.0233398,
4130,-0.0250244,0.023291,
4132,0.0219727,0.0232422,
4134,0.00244141,0.0230164,
4136,0.0115967,0.0229309,
4138,0.0146484,0.0227478,
4140,0.0463867,0.0226379,
4142,0.0506592,0.0228821,
4144,-0.012207,0.0227661,
4146,0.043335,0.0229065,
4148,-0.043335,0.0232117,
4150,-0.0463867,0.0235413,
4152,0.0390625,0.0236511,
4154,-0.0476074,0.0239075,
4156,-0.067749,0.0244995,
4158,-0.0341797,0.0248291,
4160,-0.032959,0.0251465,
4162,0.0286865,0.0254089,
4164,-0.0305176,0.0255859,
4166,-0.0549316,0.0261047,
4168,-0.00915527,0.0257935,
4170,0.0317383,0.0258179,
4172,0.0201416,0.0257507,
4174,-0.0305176,0.0255798,
4176,-0.0158691,0.0253052,
4178,-0.0164795,0.0248535,
4180,0.00183105,0.0245361,
4182,0.0531006,0.0250488,
4184,-0.00549316,0.0250427,
4186,-0.0708008,0.0257446,
4188,-0.020752,0.0258179,
4190,-0.0201416,0.0260132,
4192,-0.0372314,0.0258789,
4194,-0.0567627,0.0257874,
4196,-0.0292969,0.0255188,
4198,0.0152588,0.0255188,
4200,-0.065918,0.0259338,
4202,-0.000610352,0.0257751,
4204,0.00793457,0.0258301,
4206,0.0311279,0.0258972,
4208,-0.045166,0.0260315,
4210,0.00610352,0.0260315,
4212,0.0262451,0.0262085,
4214,-0.0183105,0.0262939,
4216,-0.0146484,0.0263123,
4218,0,0.0262756,
4220,-0.0231934,0.0264404,
4222,-0.00549316,0.0262085,
4224,-0.0598145,0.0266418,
4226,-0.0445557,0.0270264,
4228,-0.0335693,0.0272705,
4230,0.00305176,0.0269714,
4232,0.00915527,0.0264099,
4234,-0.0488281,0.0267151,
4236,-0.0286865,0.0269775,
4238,0.00427246,0.0266052,
4240,0.0341797,0.0267639,
4242,0.0390625,0.0268372,
4244,0.0195313,0.0268738,
4246,0.00244141,0.0265991,
4248,0.00671387,0.0265259,
4250,-0.00610352,0.0264099,
4252,-0.010376,0.0262878,
4254,0.0231934,0.0263123,
4256,-0.00427246,0.0259399,
4258,-0.0402832,0.0263,
4260,-0.022583,0.0258972,
4262,0.0299072,0.0258789,
4264,0.0177002,0.0259338,
4266,-0.0640869,0.0265564,
4268,-0.0354004,0.026886,
4270,-0.00488281,0.0267517,
4272,0.00793457,0.0265381,
4274,-0.00793457,0.0262817,
4276,-0.0836182,0.026709,
4278,-0.0213623,0.0265076,
4280,-0.0146484,0.0264771,
4282,-0.043335,0.0265076,
4284,0.0146484,0.0265625,
4286,-0.00976563,0.0264893,
4288,-0.0292969,0.0262024,
4290,-0.0592041,0.0265198,
4292,-0.0494385,0.0269592,
4294,0.0299072,0.0269531,
4296,-0.00488281,0.0265503,
4298,-0.0012207,0.0263733,
4300,0.010376,0.0261353,
4302,0.0140381,0.0259399,
4304,0.0128174,0.0258667,
4306,0.0231934,0.0260803,
4308,0.0164795,0.0260864,
4310,-0.0244141,0.0259583,
4312,-0.0421143,0.0262939,
4314,-0.0170898,0.0261047,
4316,-0.0152588,0.0257751,
4318,-0.0140381,0.025885,
4320,0.0195313,0.025647,
4322,-0.0238037,0.0258179,
4324,-0.0341797,0.0259338,
4326,0.0238037,0.025946,
4328,0.0280762,0.0262207,
4330,0.0793457,0.0267639,
4332,0.0115967,0.0266602,
4334,-0.0219727,0.0268555,
4336,-0.0109863,0.0268494,
4338,0.0415039,0.0271179,
4340,-0.00610352,0.0267151,
4342,0.0170898,0.0263794,
4344,-0.0579834,0.0268372,
4346,-0.0610352,0.0270142,
4348,-0.0244141,0.026825,
4350,-0.0140381,0.0265015,
4352,-0.0494385,0.0266052,
4354,-0.114746,0.0272766,
4356,0.0183105,0.0267822,
4358,0.0256348,0.0266968,
4360,-0.022583,0.026593,
4362,-0.0408936,0.0267151,
4364,0.0164795,0.0265747,
4366,-0.0201416,0.0262268,
4368,0.010376,0.026239,
4370,-0.0244141,0.0261658,
4372,0.0274658,0.026239,
4374,-0.00976563,0.0260315,
4376,-0.0262451,0.0261353,
4378,0.00610352,0.0260315,
4380,0.00366211,0.0260498,
4382,-0.00732422,0.025592,
4384,-0.0183105,0.0257202,
4386,-0.03479,0.0253601,
4388,0.00610352,0.0252136,
4390,-0.0115967,0.0251282,
4392,0.00610352,0.0248169,
4394,-0.00854492,0.0243347,
4396,-0.0152588,0.0241943,
4398,0.000610352,0.0240479,
4400,-0.0341797,0.0237305,
4402,0.00610352,0.0237854,
4404,-0.00732422,0.0237793,
4406,-0.0372314,0.0238403,
4408,0.0262451,0.0236511,
4410,-0.0567627,0.0241577,
4412,0.0415039,0.0243103,
4414,0.0256348,0.0243835,
4416,-0.00854492,0.0243225,
4418,0.0427246,0.0247498,
4420,0.0012207,0.02453,
4422,0.0469971,0.0249451,
4424,0.0213623,0.0245605,
4426,-0.00244141,0.0241394,
4428,0.0335693,0.0241394,
4430,-0.032959,0.0244385,
4432,-0.0183105,0.02453,
4434,-0.00488281,0.0240906,
4436,0.000610352,0.0238098,
4438,-0.0396729,0.0241638,
4440,0.00427246,0.0238647,
4442,0.0518799,0.0239929,
4444,-0.0891113,0.0246887,
4446,-0.0714111,0.0253784,
4448,-0.010376,0.025415,
4450,-0.00549316,0.0254089,
4452,-0.0500488,0.0258057,
4454,-0.0366211,0.0259399,
4456,-0.0512695,0.0264099,
4458,-0.0305176,0.0263123,
4460,-0.0299072,0.0263855,
4462,-0.012207,0.0262085,
4464,-0.0152588,0.0261841,
4466,0.00915527,0.0256348,
4468,0.00915527,0.0253723,
4470,-0.0213623,0.0255371,
4472,-0.00915527,0.0255493,
4474,-0.0439453,0.0259094,
4476,-0.0445557,0.0255188,
4478,0.0335693,0.0256409,
4480,0.0158691,0.0256531,
4482,0.012207,0.0253418,
4484,0.00366211,0.0252319,
4486,-0.0195313,0.0253296,
4488,-0.03479,0.0253845,
4490,0.0177002,0.0249695,
4492,0.0427246,0.0249023,
4494,-0.0378418,0.0249817,
4496,-0.0512695,0.0254456,
4498,-0.0665283,0.0260986,
4500,0.00427246,0.0260376,
4502,0.00244141,0.0259216,
4504,-0.0177002,0.0259705,
4506,0.0512695,0.0262512,
4508,0.0408936,0.0264954,
4510,-0.00976563,0.0263489,
4512,-0.00183105,0.025946,
4514,0.0250244,0.0260254,
4516,0.0427246,0.0263,
4518,0.0567627,0.0267273,
4520,-0.0463867,0.0269958,
4522,-0.0811768,0.0275696,
4524,-0.00549316,0.0272827,
4526,-0.0128174,0.0271729,
4528,-0.0305176,0.0271973,
4530,-0.0463867,0.0268677,
4532,-0.0372314,0.027124,
4534,-0.012207,0.0270264,
4536,-0.0109863,0.0270264,
4538,-0.00427246,0.0266541,
4540,-0.022583,0.0268188,
4542,0.00366211,0.0266846,
4544,0.0488281,0.026593,
4546,0.00793457,0.026062,
4548,0.0012207,0.0258301,
4550,0.0445557,0.0261353,
4552,-0.055542,0.0261963,
4554,0.00671387,0.025116,
4556,0,0.0249329,
4558,-0.022583,0.0249023,
4560,-0.0299072,0.0249756,
4562,-0.0134277,0.0247009,
4564,-0.0469971,0.0250061,
4566,-0.0238037,0.0250427,
4568,0.0231934,0.0251709,
4570,0.0286865,0.0252136,
4572,0.00427246,0.0249817,
4574,-0.0274658,0.0251587,
4576,-0.00732422,0.0249695,
4578,0.0531006,0.0254395,
4580,-0.00610352,0.0254639,
4582,-0.0195313,0.0255859,
4584,0.0317383,0.0257202,
4586,-0.0146484,0.0255188,
4588,-0.0134277,0.025592,
4590,0.065918,0.0261353,
4592,0.0488281,0.0265625,
4594,-0.0549316,0.0270264,
4596,0.0305176,0.027179,
4598,0.00671387,0.02724,
4600,0.00305176,0.0269287,
4602,-0.0292969,0.0271606,
4604,-0.0201416,0.0272888,
4606,-0.00732422,0.0269897,
4608,-0.0109863,0.0268372,
4610,-0.0128174,0.0263977,
4612,-0.0402832,0.0263855,
4614,-0.0708008,0.0268372,
4616,0.0140381,0.0268921,
4618,0.022583,0.0266907,
4620,-0.0213623,0.0268921,
4622,-0.0732422,0.0271545,
4624,0.0115967,0.0270569,
4626,-0.00671387,0.0270996,
4628,0.00732422,0.0268372,
4630,0.0219727,0.0267273,
4632,0.045166,0.0269958,
4634,0.0170898,0.0271179,
4636,-0.00976563,0.0272095,
4638,-0.090332,0.0277161,
4640,0.057373,0.0282471,
4642,-0.0128174,0.0278564,
4644,-0.0628662,0.027594,
4646,-0.0299072,0.027179,
4648,-0.0341797,0.027417,
4650,-0.022583,0.0275879,
4652,0.0262451,0.0273499,
4654,-0.00976563,0.0270813,
4656,0.032959,0.0268982,
4658,-0.0140381,0.0267334,
4660,-0.00610352,0.0264954,
4662,-0.0140381,0.0265137,
4664,0.00732422,0.0264343,
4666,-0.022583,0.0265686,
4668,-0.00610352,0.0265381,
4670,0.0012207,0.0263367,
4672,0.00976563,0.0263428,
4674,-0.0170898,0.0260742,
4676,0.0421143,0.0260498,
4678,0.0360107,0.0260742,
4680,-0.010376,0.0260193,
4682,0.0622559,0.0265198,
4684,-0.0238037,0.0267212,
4686,-0.00854492,0.0266113,
4688,-0.0128174,0.0263916,
4690,-0.00183105,0.0262329,
4692,-0.0640869,0.0264465,
4694,-0.00976563,0.0261658,
4696,-0.00427246,0.0256958,
4698,-0.00610352,0.0250916,
4700,-0.0665283,0.0257141,
4702,-0.0152588,0.0258423,
4704,0.0134277,0.0257996,
4706,-0.0177002,0.0254639,
4708,-0.0115967,0.0251709,
4710,0,0.0250732,
4712,-0.0354004,0.0254089,
4714,0.0378418,0.0255371,
4716,-0.0335693,0.0254456,
4718,-0.0109863,0.0249878,
4720,-0.0415039,0.024939,
4722,0.0274658,0.0244019,
4724,0.0305176,0.0246521,
4726,-0.0640869,0.0251648,
4728,-0.0476074,0.0253357,
4730,0.0360107,0.0252319,
4732,-0.0335693,0.0251953,
4734,-0.00915527,0.0251648,
4736,0.0170898,0.0252258,
4738,0.00427246,0.0252258,
4740,-0.0585938,0.0255859,
4742,-0.0500488,0.0260498,
4744,0.045166,0.0260132,
4746,-0.0213623,0.0261475,
4748,-0.00793457,0.0262146,
4750,-0.0170898,0.0259399,
4752,-0.00366211,0.0254211,
4754,0.0177002,0.025531,
4756,0.0177002,0.025708,
4758,-0.00549316,0.0255371,
4760,0.00427246,0.0252808,
4762,0.00305176,0.025177,
4764,-0.00488281,0.0247559,
4766,-0.00732422,0.0245911,
4768,0.0109863,0.024469,
4770,-0.0494385,0.0246765,
4772,-0.00183105,0.0246521,
4774,0.0115967,0.0244934,
4776,-0.0366211,0.0247864,
4778,-0.0146484,0.0244019,
4780,0.0341797,0.0246826,
4782,-0.00183105,0.0245056,
4784,-0.0500488,0.0246887,
4786,-0.043335,0.0249756,
4788,0.00366211,0.0248779,
4790,-0.00305176,0.0242493,
4792,0.00915527,0.0238525,
4794,-0.0244141,0.0235474,
4796,0.00549316,0.0232971,
4798,0.0109863,0.0233398,
4800,0.0244141,0.0235535,
4802,0.0567627,0.0238281,
4804,0.0012207,0.0236389,
4806,-0.0531006,0.0240967,
4808,0.0231934,0.0242188,
4810,-0.0109863,0.0242004,
4812,-0.0299072,0.0240967,
4814,-0.0439453,0.0238281,
4816,-0.0341797,0.0240295,
4818,-0.0500488,0.0243042,
4820,-0.0262451,0.024353,
4822,-0.0616455,0.0242371,
4824,0.0134277,0.0242554,
4826,0.00427246,0.024231,
4828,-0.0213623,0.0243713,
4830,-0.0109863,0.0242615,
4832,-0.012207,0.0239319,
4834,0.0372314,0.0241333,
4836,0.0177002,0.0242126,
4838,0.0317383,0.0236267,
4840,-0.0274658,0.0233276,
4842,0.0341797,0.0235413,
4844,-0.00854492,0.022998,
4846,-0.0012207,0.0227112,
4848,-0.0457764,0.0228271,
4850,-0.0250244,0.0228516,
4852,-0.0323486,0.0229126,
4854,-0.0195313,0.0230103,
4856,-0.00488281,0.0227295,
4858,-0.00305176,0.0226196,
4860,-0.00305176,0.0225891,
4862,-0.0238037,0.0226868,
4864,-0.0262451,0.022876,
4866,0.0128174,0.0227783,
4868,0.0439453,0.0231567,
4870,-0.0152588,0.0232971,
4872,-0.0488281,0.0236877,
4874,-0.0164795,0.0236816,
4876,-0.0158691,0.0234192,
4878,0.0292969,0.0233521,
4880,-0.00549316,0.0233032,
4882,0.0140381,0.022821,
4884,-0.00610352,0.022644,
4886,0.00488281,0.0226074,
4888,-0.00305176,0.0225098,
4890,0.00732422,0.0225647,
4892,0.0323486,0.0222473,
4894,-0.0628662,0.0227783,
4896,0.0238037,0.0229736,
4898,0,0.0229126,
4900,-0.0653076,0.0229004,
4902,-0.0268555,0.0230164,
4904,-0.00488281,0.0229309,
4906,-0.0164795,0.0229187,
4908,-0.0109863,0.0229126,
4910,-0.000610352,0.0229187,
4912,0.0317383,0.0228821,
4914,0.0177002,0.0226807,
4916,-0.0592041,0.022937,
4918,-0.00549316,0.0228821,
4920,0.0244141,0.0227112,
4922,-0.0244141,0.0226807,
4924,0.00732422,0.0224487,
4926,-0.0158691,0.0219666,
4928,-0.0817871,0.0223083,
4930,-0.00671387,0.0220154,
4932,0.067749,0.0223572,
4934,-0.0183105,0.0224487,
4936,0.0195313,0.0224731,
4938,0.0360107,0.0227905,
4940,0.0256348,0.0224609,
4942,-0.0268555,0.022229,
4944,-0.0640869,0.0224182,
4946,0.0762939,0.0229675,
4948,-0.0238037,0.0231262,
4950,-0.0115967,0.0230713,
4952,-0.00732422,0.0231079,
4954,-0.0140381,0.0230713,
4956,-0.0183105,0.0230774,
4958,0.0158691,0.0231812,
4960,-0.03479,0.0234863,
4962,-0.00488281,0.0235046,
4964,-0.0115967,0.0235718,
4966,-0.0323486,0.023822,
4968,-0.0183105,0.0238953,
4970,-0.0390625,0.0237915,
4972,-0.0787354,0.0245605,
4974,-0.0201416,0.024646,
4976,0.0238037,0.0245178,
4978,0.0115967,0.0244873,
4980,-0.012207,0.0242676,
4982,-0.00610352,0.0243103,
4984,0.00549316,0.0238647,
4986,0.00854492,0.0235168,
4988,0.020752,0.0236877,
4990,0.00366211,0.0236938,
4992,-0.0463867,0.0240662,
4994,-0.0231934,0.024054,
4996,-0.0335693,0.0243347,
4998,-0.0201416,0.0244263,
5000,0.00366211,0.0242188,
5002,0.0183105,0.0238342,
5004,0.0213623,0.0240356,
5006,-0.0646973,0.0241516,
5008,0.0457764,0.0243774,
5010,0.0665283,0.0249329,
5012,0.00244141,0.0246582,
5014,-0.00915527,0.0243103,
5016,-0.0408936,0.0243774,
5018,-0.0012207,0.0238892,
5020,-0.0354004,0.0239807,
5022,-0.00854492,0.0234497,
5024,-0.0622559,0.023938,
5026,-0.0115967,0.0240112,
5028,-0.0177002,0.0239746,
5030,-0.00732422,0.023938,
5032,0.0292969,0.0241089,
5034,0.0390625,0.0241272,
5036,-0.00488281,0.023999,
5038,0.0628662,0.0243103,
5040,0.0628662,0.0246643,
5042,-0.0292969,0.0246155,
5044,0.0244141,0.0247742,
5046,-0.0231934,0.0249939,
5048,-0.0238037,0.0247742,
5050,-0.0195313,0.0247192,
5052,-0.0183105,0.0245789,
5054,-0.00488281,0.0244324,
5056,-0.045166,0.0248352,
5058,-0.00915527,0.0248962,
5060,-0.0146484,0.0250122,
5062,0.00366211,0.0248108,
5064,-0.0146484,0.0246948,
5066,-0.0396729,0.0249634,
5068,0.00427246,0.0245667,
5070,-0.0402832,0.0248169,
5072,0.0140381,0.024469,
5074,-0.0811768,0.025116,
5076,0.0402832,0.0253601,
5078,0.00854492,0.0251526,
5080,-0.0335693,0.0254333,
5082,-0.0134277,0.0254272,
5084,0.0274658,0.0256409,
5086,0.0561523,0.0261536,
5088,-0.103149,0.0271545,
5090,-0.0183105,0.0272644,
5092,0.0524902,0.0274658,
5094,-0.0158691,0.0269958,
5096,-0.010376,0.0268616,
5098,0.0158691,0.0270203,
5100,-0.0244141,0.0266113,
5102,-0.012207,0.0264648,
5104,0.00976563,0.0265137,
5106,0.0238037,0.0265869,
5108,0.0256348,0.0267334,
5110,-0.0445557,0.0271729,
5112,-0.0280762,0.0271362,
5114,0.0213623,0.0271729,
5116,0.0482178,0.027063,
5118,0.000610352,0.0270142,
5120,-0.0177002,0.026947,
5122,-0.00305176,0.0267334,
5124,-0.00793457,0.0267395,
5126,0.0415039,0.0269958,
5128,-0.00366211,0.0262146,
5130,-0.0177002,0.0263245,
5132,-0.0244141,0.0258911,
5134,-0.0158691,0.0258667,
5136,-0.0311279,0.0259827,
5138,-0.0128174,0.0257507,
5140,-0.00244141,0.0255188,
5142,-0.0360107,0.0256104,
5144,-0.0537109,0.0255066,
5146,-0.00732422,0.0248169,
5148,-0.0268555,0.0248474,
5150,-0.0158691,0.0248901,
5152,0.012207,0.024939,
5154,0.00976563,0.0248962,
5156,-0.0299072,0.0250122,
5158,-0.00244141,0.0248779,
5160,0.00305176,0.0245605,
5162,0.0219727,0.0247314,
5164,-0.000610352,0.0246216,
5166,0.0256348,0.0245544,
5168,-0.032959,0.0247009,
5170,-0.00610352,0.0243713,
5172,0.00976563,0.0236816,
5174,0.0311279,0.0237915,
5176,0.00305176,0.023584,
5178,-0.0390625,0.0238586,
5180,-0.00854492,0.023822,
5182,0.022583,0.0239868,
5184,-0.0311279,0.0242432,
5186,0.0250244,0.024408,
5188,-0.0256348,0.0244568,
5190,-0.03479,0.0247681,
5192,-0.0146484,0.0244507,
5194,-0.0445557,0.0246643,
5196,-0.0012207,0.0243408,
5198,-0.00732422,0.0242126,
5200,-0.0238037,0.0244141,
5202,-0.0201416,0.0244324,
5204,-0.0549316,0.0247681,
5206,0.0195313,0.0243164,
5208,0.00244141,0.0238831,
5210,0.00427246,0.0232605,
5212,0.0177002,0.0234131,
5214,0.0549316,0.0238708,
5216,0.0488281,0.0239502,
5218,0.00366211,0.0239746,
5220,-0.00549316,0.0236755,
5222,0.0341797,0.0239319,
5224,-0.0183105,0.0234924,
5226,-0.0152588,0.0235291,
5228,-0.00610352,0.0234131,
5230,-0.0439453,0.0237793,
5232,-0.0219727,0.0237061,
5234,-0.022583,0.0235413,
5236,-0.0402832,0.0238953,
5238,-0.043335,0.0237,
5240,-0.010376,0.023175,
5242,-0.0152588,0.0230347,
5244,-0.00732422,0.0228638,
5246,-0.0134277,0.0227661,
5248,-0.0231934,0.02276,
5250,-0.0170898,0.0227356,
5252,0.000610352,0.0225586,
5254,0.000610352,0.0225159,
5256,0.00732422,0.0221375,
5258,0.0567627,0.0226135,
5260,-0.057373,0.0230408,
5262,-0.0134277,0.0231384,
5264,-0.010376,0.0230957,
5266,0.0146484,0.0228455,
5268,-0.0170898,0.0229736,
5270,-0.032959,0.0229004,
5272,0.000610352,0.0227661,
5274,0.03479,0.0223022,
5276,0.00549316,0.0219543,
5278,0.0250244,0.0221191,
5280,0.0219727,0.0220032,
5282,-0.00549316,0.0219238,
5284,0.0305176,0.0219543,
5286,0.0927734,0.0223206,
5288,0.0701904,0.021991,
5290,0.0994873,0.0228027,
5292,-0.0415039,0.0226929,
5294,-0.00427246,0.0225769,
5296,0.0170898,0.022644,
5298,0.0561523,0.0230469,
5300,0.00854492,0.0228882,
5302,-0.0854492,0.0236206,
5304,-0.130615,0.0248291,
5306,-0.0524902,0.025116,
5308,-0.0158691,0.0250183,
5310,-0.0689697,0.0252625,
5312,-0.0115967,0.0250977,
5314,-0.0158691,0.0250427,
5316,-0.0439453,0.025,
5318,0.0152588,0.0251465,
5320,-0.0213623,0.0251831,
5322,0.0604248,0.0257568,
5324,-0.0610352,0.0262878,
5326,-0.0244141,0.0261169,
5328,0.0109863,0.0261902,
5330,-0.0335693,0.0263489,
5332,-0.0366211,0.0264709,
5334,-0.0201416,0.0265137,
5336,0.00976563,0.0263,
5338,0.0415039,0.0265869,
5340,0.0140381,0.0267029,
5342,-0.0183105,0.0265259,
5344,0.0256348,0.0262451,
5346,0.00854492,0.0262573,
5348,0.0262451,0.0262512,
5350,-0.00488281,0.0261414,
5352,-0.0164795,0.0261841,
5354,0.00732422,0.0261597,
5356,-0.0408936,0.0262695,
5358,-0.00854492,0.0263306,
5360,0.0012207,0.0263123,
5362,-0.0164795,0.0262573,
5364,0.0323486,0.0265747,
5366,-0.0415039,0.0267334,
5368,-0.022583,0.0266296,
5370,-0.0579834,0.0271484,
5372,-0.0164795,0.0272156,
5374,0.0134277,0.0270386,
5376,0.00671387,0.0270752,
5378,-0.0195313,0.0268799,
5380,-0.045166,0.0272461,
5382,0.0140381,0.0271606,
5384,0.00427246,0.0268921,
5386,0.0457764,0.0270996,
5388,0.010376,0.026947,
5390,-0.00366211,0.0266357,
5392,-0.0384521,0.0268738,
5394,0.0146484,0.0265747,
5396,0.00976563,0.0266602,
5398,0.00427246,0.0266296,
5400,0.012207,0.0265137,
5402,-0.0238037,0.0265503,
5404,-0.000610352,0.0260071,
5406,-0.0256348,0.0260681,
5408,0.012207,0.0261658,
5410,0.0250244,0.0263733,
5412,-0.0146484,0.0263428,
5414,-0.00549316,0.0258484,
5416,0.00488281,0.0254089,
5418,0.0341797,0.0257141,
5420,0.012207,0.0257813,
5422,-0.0415039,0.0258545,
5424,-0.0488281,0.0261597,
5426,0.00793457,0.0260864,
5428,0.0311279,0.0263367,
5430,-0.0360107,0.0262573,
5432,-0.0994873,0.0270325,
5434,-0.0231934,0.0270386,
5436,0.043335,0.0270691,
5438,-0.057373,0.0272095,
5440,0,0.0271057,
5442,-0.0158691,0.0271118,
5444,-0.032959,0.0273682,
5446,0.0512695,0.0277466,
5448,0.0134277,0.0276489,
5450,-0.00915527,0.0275696,
5452,0.0842285,0.0284058,
5454,-0.0372314,0.028772,
5456,-0.0109863,0.0288086,
5458,0.03479,0.0285889,
5460,-0.0146484,0.0281616,
5462,-0.0714111,0.0287415,
5464,-0.0646973,0.0292847,
5466,-0.0238037,0.0293762,
5468,-0.032959,0.0295349,
5470,-0.0311279,0.0295166,
5472,-0.0335693,0.0298462,
5474,0.00976563,0.0295959,
5476,0.0512695,0.0300537,
5478,0.00427246,0.0298462,
5480,-0.0408936,0.0300354,
5482,0.0531006,0.0305115,
5484,0.012207,0.0303284,
5486,-0.0262451,0.0296631,
5488,0.00366211,0.0289978,
5490,-0.00671387,0.0280701,
5492,-0.0549316,0.0282043,
5494,0.0231934,0.0283936,
5496,0.0378418,0.0286011,
5498,-0.0250244,0.0282898,
5500,-0.0238037,0.0284424,
5502,-0.0317383,0.0279053,
5504,0.00366211,0.0266357,
5506,0.0305176,0.026416,
5508,0.0317383,0.0265747,
5510,-0.022583,0.0261108,
5512,-0.0482178,0.0264771,
5514,-0.0256348,0.0265747,
5516,0.00244141,0.0261597,
5518,0.00488281,0.0260559,
5520,-0.0292969,0.0261353,
5522,-0.0213623,0.0257446,
5524,-0.0140381,0.0252747,
5526,0.0152588,0.0251831,
5528,-0.0109863,0.0251831,
5530,-0.00305176,0.0248779,
5532,0.0012207,0.0245239,
5534,-0.0012207,0.0243347,
5536,0.00671387,0.0243042,
5538,-0.0189209,0.0240784,
5540,-0.0250244,0.0241882,
5542,-0.00976563,0.0241028,
5544,-0.0354004,0.0242004,
5546,-0.0012207,0.0241272,
5548,-0.0128174,0.0239929,
5550,-0.0177002,0.0241211,
5552,-0.0164795,0.0241211,
5554,-0.0244141,0.024292,
5556,0.00610352,0.0239441,
5558,0.0134277,0.0239929,
5560,0.00305176,0.0240112,
5562,0.00366211,0.0238831,
5564,0.0146484,0.0237061,
5566,0.0158691,0.0234497,
5568,0.032959,0.0235535,
5570,0.0213623,0.0231873,
5572,0.0128174,0.0231506,
5574,0.00244141,0.0230408,
5576,0.0164795,0.0231384,
5578,0.0274658,0.0232178,
5580,0.00488281,0.0228149,
5582,-0.00610352,0.0227356,
5584,-0.0134277,0.0228271,
5586,-0.0189209,0.0225586,
5588,-0.0012207,0.022467,
5590,0.0128174,0.0225586,
5592,0.0286865,0.0224609,
5594,-0.0354004,0.0226685,
5596,0.0299072,0.0228699,
5598,0.0134277,0.0229614,
5600,-0.00610352,0.0229004,
5602,-0.0274658,0.022937,
5604,0.00305176,0.0229614,
5606,0.022583,0.0229309,
5608,0.0256348,0.0230652,
5610,-0.0341797,0.0231567,
5612,-0.0506592,0.0235168,
5614,0.00244141,0.0234863,
5616,0.012207,0.0235596,
5618,0.010376,0.0233215,
5620,-0.0201416,0.0234009,
5622,0.00793457,0.0230652,
5624,-0.0219727,0.0227966,
5626,-0.0311279,0.0230286,
5628,-0.0341797,0.0230591,
5630,0.0177002,0.022876,
5632,0,0.0218811,
5634,-0.0469971,0.0221191,
5636,-0.043335,0.0221191,
5638,-0.0445557,0.021991,
5640,-0.00793457,0.0220703,
5642,-0.03479,0.0222595,
5644,-0.0335693,0.0222656,
5646,-0.0219727,0.0219727,
5648,-0.00610352,0.0218994,
5650,0.00305176,0.0218384,
5652,-0.00549316,0.021051,
5654,-0.00854492,0.0207642,
5656,-0.00610352,0.0207153,
5658,0.00183105,0.0203857,
5660,-0.00854492,0.0203247,
5662,-0.010376,0.0197144,
5664,-0.00427246,0.0191101,
5666,-0.0262451,0.0191345,
5668,-0.00793457,0.0188843,
5670,-0.00671387,0.0186401,
5672,0.012207,0.0184265,
5674,0.000610352,0.018335,
5676,-0.0158691,0.017981,
5678,0.00793457,0.0180176,
5680,0.00976563,0.0177063,
5682,0.00976563,0.0172729,
5684,-0.00305176,0.0171814,
5686,-0.00671387,0.0169861,
5688,-0.00610352,0.0170105,
5690,-0.00915527,0.0170349,
5692,-0.00732422,0.0165588,
5694,-0.00305176,0.0163574,
5696,0.00183105,0.0159973,
5698,0.012207,0.0158691,
5700,-0.000610352,0.0156372,
5702,0.0250244,0.0155701,
5704,0.0146484,0.0156799,
5706,-0.00671387,0.0154419,
5708,-0.010376,0.0152283,
5710,0.00976563,0.0151001,
5712,0.0177002,0.0147949,
5714,-0.00488281,0.0145874,
5716,-0.0305176,0.0148682,
5718,-0.0195313,0.0150146,
5720,-0.00305176,0.0147522,
5722,-0.0305176,0.0148437,
5724,0.0152588,0.014856,
5726,0.00183105,0.0147217,
5728,0.00305176,0.0146423,
5730,-0.0390625,0.0150024,
5732,0.0012207,0.0150024,
5734,0.00976563,0.0150879,
5736,-0.0109863,0.0151306,
5738,0.00183105,0.0149597,
5740,0.00366211,0.0147461,
5742,-0.00183105,0.0146667,
5744,-0.0244141,0.0145569,
5746,-0.0231934,0.0147766,
5748,0.0115967,0.0147644,
5750,-0.00366211,0.014624,
5752,0.00427246,0.014502,
5754,-0.0134277,0.0143921,
5756,-0.0274658,0.0146057,
5758,0.010376,0.0145752,
5760,-0.000610352,0.0145508,
5762,-0.0134277,0.0146484,
5764,-0.00793457,0.0145813,
5766,-0.00488281,0.0144714,
5768,-0.0146484,0.0142883,
5770,-0.00488281,0.0141235,
5772,0.00549316,0.0140503,
5774,0.0427246,0.0144531,
5776,0.0256348,0.0145447,
5778,-0.0280762,0.0145508,
5780,0.0012207,0.0145142,
5782,-0.00488281,0.014502,
5784,0.00366211,0.0144043,
5786,0.00549316,0.01427,
5788,-0.0231934,0.0144897,
5790,-0.0445557,0.0148071,
5792,-0.0012207,0.0145325,
5794,0.0286865,0.0144653,
5796,-0.0268555,0.0144348,
5798,-0.0109863,0.0144104,
5800,0.00549316,0.0144043,
5802,0.00427246,0.0141724,
5804,-0.0134277,0.0142761,
5806,-0.00732422,0.0141235,
5808,-0.0189209,0.0140564,
5810,-0.00915527,0.0138062,
5812,0.00305176,0.0133301,
5814,0.00854492,0.0133911,
5816,0.010376,0.0133728,
5818,0.0189209,0.0134583,
5820,0.00244141,0.0132813,
5822,-0.0238037,0.0134399,
5824,0.00854492,0.0133057,
5826,0.00976563,0.013092,
5828,0.00610352,0.0128113,
5830,-0.00793457,0.0127136,
5832,-0.0305176,0.0130188,
5834,-0.0189209,0.012738,
5836,0.0140381,0.0124451,
5838,0,0.0119995,
5840,-0.0140381,0.0120605,
5842,-0.0158691,0.0118713,
5844,0.00427246,0.0115784,
5846,0.00793457,0.011438,
5848,-0.00366211,0.0114136,
5850,0.00976563,0.0114807,
5852,-0.0183105,0.0116089,
5854,-0.00732422,0.0115967,
5856,0.00976563,0.0116333,
5858,0.00366211,0.0116516,
5860,-0.00732422,0.0116394,
5862,0.0268555,0.0118042,
5864,-0.0115967,0.0118774,
5866,-0.00793457,0.0116943,
5868,0.0012207,0.0116272,
5870,0.00366211,0.0115967,
5872,-0.00671387,0.0115417,
5874,-0.0140381,0.011676,
5876,0.0366211,0.0118835,
5878,0.00610352,0.0118652,
5880,-0.0177002,0.0119446,
5882,-0.00183105,0.0118652,
5884,0.0183105,0.0120178,
5886,0.00610352,0.0120117,
5888,-0.00183105,0.011969,
5890,-0.0256348,0.0121338,
5892,-0.00671387,0.0121277,
5894,-0.0213623,0.0123108,
5896,-0.020752,0.0125,
5898,-0.0231934,0.0126099,
5900,-0.0109863,0.0127136,
5902,-0.000610352,0.0124695,
5904,-0.0158691,0.0124817,
5906,-0.00732422,0.0124878,
5908,-0.000610352,0.0123901,
5910,0.00793457,0.0123718,
5912,-0.0134277,0.0123291,
5914,-0.0286865,0.0125671,
5916,0.0115967,0.0123779,
5918,0.0158691,0.0123413,
5920,0.010376,0.0124146,
5922,-0.0115967,0.0122253,
5924,0.00732422,0.012146,
5926,0.012207,0.0122498,
5928,-0.0158691,0.0123779,
5930,0.010376,0.0120911,
5932,0.00305176,0.0121094,
5934,-0.022583,0.0122375,
5936,-0.0140381,0.0122681,
5938,0.00244141,0.0122742,
5940,0.0341797,0.0125793,
5942,-0.012207,0.0126831,
5944,-0.032959,0.0127686,
5946,0.00244141,0.012561,
5948,0.03479,0.012793,
5950,-0.00427246,0.0127991,
5952,-0.0439453,0.0131958,
5954,-0.0201416,0.0132629,
5956,-0.00915527,0.0130798,
5958,-0.00976563,0.0130737,
5960,-0.0177002,0.0132446,
5962,-0.0201416,0.0133118,
5964,-0.00366211,0.013269,
5966,0.0195313,0.0134155,
5968,0.000610352,0.0132751,
5970,0.00671387,0.0132935,
5972,0.00549316,0.0132935,
5974,-0.0158691,0.0130249,
5976,0.0128174,0.0128967,
5978,0.00915527,0.0127075,
5980,-0.000610352,0.0127014,
5982,0.00183105,0.0126709,
5984,-0.0286865,0.0129211,
5986,0.00793457,0.0129456,
5988,0.0164795,0.0128784,
5990,-0.00183105,0.0124512,
5992,0.000610352,0.0124451,
5994,0.0109863,0.0122681,
5996,0.0305176,0.0123047,
5998,0.00732422,0.0122681,
6000,0.00793457,0.0122925,
6002,-0.00244141,0.0122742,
6004,-0.0238037,0.0123779,
6006,0.00366211,0.0123413,
6008,-0.00671387,0.0122192,
6010,-0.010376,0.0122314,
6012,0.0115967,0.0123169,
6014,-0.022583,0.0124573,
6016,-0.0427246,0.0127808,
6018,-0.00610352,0.0126526,
6020,0.0256348,0.0128845,
6022,0.0219727,0.0128662,
6024,-0.00305176,0.0128113,
6026,-0.0494385,0.013208,
6028,0.0164795,0.0133118,
6030,0,0.0132324,
6032,-0.0109863,0.0130371,
6034,-0.0219727,0.0130676,
6036,0.000610352,0.0129333,
6038,0.00183105,0.0129517,
6040,-0.0219727,0.013031,
6042,0.0012207,0.0128845,
6044,-0.00488281,0.0128906,
6046,0.012207,0.0129333,
6048,0.012207,0.0130188,
6050,0.0335693,0.0132568,
6052,0.0262451,0.0133362,
6054,-0.0457764,0.0137207,
6056,-0.00793457,0.0137024,
6058,0.0115967,0.0137817,
6060,0.00549316,0.0137634,
6062,-0.012207,0.0136169,
6064,-0.0256348,0.0137573,
6066,-0.0384521,0.0140625,
6068,-0.010376,0.0141541,
6070,0.00488281,0.0141663,
6072,-0.0109863,0.014209,
6074,0.020752,0.0142761,
6076,0.0201416,0.0141113,
6078,0.012207,0.0141724,
6080,0.0115967,0.0141113,
6082,0.010376,0.0141968,
6084,0.0195313,0.014209,
6086,-0.00854492,0.0142334,
6088,-0.0280762,0.0144958,
6090,-0.022583,0.0144653,
6092,-0.020752,0.0146057,
6094,-0.0134277,0.0145264,
6096,-0.022583,0.0145447,
6098,-0.0360107,0.0146729,
6100,0.0195313,0.0147583,
6102,0.0134277,0.0148865,
6104,-0.0219727,0.0149475,
6106,0.00976563,0.0149719,
6108,0.0262451,0.0152283,
6110,-0.00610352,0.01521,
6112,-0.0109863,0.0151855,
6114,0.03479,0.0152466,
6116,-0.0244141,0.0153748,
6118,0.00793457,0.0152954,
6120,0.0201416,0.0153931,
6122,-0.0195313,0.0154724,
6124,0.012207,0.0155212,
6126,-0.00793457,0.0154785,
6128,-0.0256348,0.0155762,
6130,-0.00549316,0.0155273,
6132,-0.00427246,0.0155396,
6134,-0.0262451,0.0155762,
6136,-0.0128174,0.015564,
6138,-0.00427246,0.0155823,
6140,-0.00976563,0.0153381,
6142,0.00366211,0.0152527,
6144,-0.012207,0.0150452,
6146,-0.00427246,0.0150635,
6148,0.00488281,0.0147644,
6150,-0.00610352,0.0147827,
6152,0.0152588,0.0144958,
6154,0,0.0142944,
6156,-0.0177002,0.0143799,
6158,0.0268555,0.0145508,
6160,0.00854492,0.0144592,
6162,-0.0146484,0.0144043,
6164,-0.00488281,0.0144165,
6166,0.020752,0.0144287,
6168,0.0256348,0.014679,
6170,-0.000610352,0.0146179,
6172,0.0439453,0.0150024,
6174,-0.0354004,0.0151978,
6176,0.0115967,0.0151855,
6178,0.0152588,0.0152466,
6180,0.00854492,0.0153259,
6182,0.000610352,0.0153137,
6184,0,0.0150269,
6186,-0.00549316,0.0150024,
6188,-0.0268555,0.0151062,
6190,-0.0585938,0.0156738,
6192,0.00549316,0.0157227,
6194,0.00427246,0.0156555,
6196,-0.0372314,0.0157227,
6198,-0.0610352,0.0162598,
6200,-0.0354004,0.0165344,
6202,-0.0012207,0.0165222,
6204,-0.0189209,0.0164734,
6206,-0.00366211,0.0164734,
6208,0,0.0164063,
6210,-0.010376,0.0164063,
6212,0.00488281,0.0163391,
6214,0.0012207,0.0161255,
6216,-0.00549316,0.0157532,
6218,0.032959,0.0160217,
6220,0,0.0157654,
6222,-0.00610352,0.0156067,
6224,-0.0152588,0.0157288,
6226,0.00610352,0.0152954,
6228,-0.0134277,0.0152649,
6230,-0.0128174,0.0153931,
6232,-0.0152588,0.0154358,
6234,-0.0292969,0.015509,
6236,-0.0177002,0.0156799,
6238,-0.0189209,0.0158508,
6240,-0.00183105,0.0156494,
6242,0.00671387,0.0157043,
6244,-0.0158691,0.0158142,
6246,0.00732422,0.0157654,
6248,0.0219727,0.015863,
6250,-0.0286865,0.0158142,
6252,-0.0213623,0.0157654,
6254,0.0140381,0.015448,
6256,0,0.0153687,
6258,-0.0146484,0.0153992,
6260,-0.0140381,0.0154846,
6262,0.000610352,0.0153687,
6264,-0.00549316,0.0151672,
6266,-0.00671387,0.0148499,
6268,0.012207,0.0148682,
6270,-0.00976563,0.014917,
6272,0.00427246,0.0148499,
6274,0.0115967,0.0147583,
6276,-0.0140381,0.0146973,
6278,-0.0128174,0.0147034,
6280,0.00183105,0.0146057,
6282,0.00488281,0.0145508,
6284,-0.000610352,0.0143616,
6286,-0.00488281,0.014325,
6288,-0.00732422,0.0141174,
6290,0.00671387,0.0139587,
6292,0.0134277,0.0138855,
6294,0.020752,0.0139587,
6296,-0.010376,0.0138367,
6298,0.0012207,0.0134888,
6300,-0.0213623,0.0135071,
6302,0.0201416,0.0135742,
6304,-0.0219727,0.0135742,
6306,0.00366211,0.0135132,
6308,-0.00732422,0.013324,
6310,-0.0140381,0.0134033,
6312,-0.0323486,0.0136169,
6314,-0.0012207,0.0132813,
6316,0.00915527,0.0131287,
6318,0.012207,0.0131714,
6320,-0.0299072,0.013269,
6322,-0.0280762,0.0133545,
6324,0.00549316,0.0132874,
6326,-0.00610352,0.013269,
6328,-0.0280762,0.0132935,
6330,-0.00427246,0.0132813,
6332,-0.00915527,0.0133301,
6334,-0.0170898,0.0132385,
6336,0.012207,0.0132324,
6338,-0.022583,0.0134155,
6340,-0.012207,0.0134399,
6342,0.00854492,0.0134888,
6344,0.00427246,0.0134094,
6346,-0.00793457,0.013446,
6348,-0.0158691,0.0135559,
6350,-0.0115967,0.0136108,
6352,0.00488281,0.0135071,
6354,-0.00854492,0.0135925,
6356,-0.00976563,0.0135132,
6358,0,0.0132446,
6360,-0.00244141,0.0131836,
6362,0.00976563,0.0131348,
6364,-0.0317383,0.0134033,
6366,-0.010376,0.0132996,
6368,0.0262451,0.0133057,
6370,0.00427246,0.0133423,
6372,0,0.0129028,
6374,-0.0231934,0.0127808,
6376,-0.00488281,0.0127136,
6378,0.012207,0.0126831,
6380,-0.00366211,0.0126343,
6382,-0.0152588,0.0127808,
6384,0.00305176,0.0128113,
6386,-0.00305176,0.0127869,
6388,0.0170898,0.0126892,
6390,-0.00549316,0.0121582,
6392,-0.0280762,0.012384,
6394,0.00732422,0.0124146,
6396,0.0183105,0.0122253,
6398,-0.00305176,0.0116455,
6400,-0.0183105,0.0114746,
6402,0.022583,0.0116882,
6404,-0.0183105,0.0116821,
6406,0.0244141,0.0118896,
6408,0.000610352,0.0118958,
6410,-0.0115967,0.011908,
6412,-0.00244141,0.0118835,
6414,-0.0372314,0.0122437,
6416,-0.0189209,0.0123779,
6418,-0.0256348,0.0123047,
6420,-0.00549316,0.0123596,
6422,-0.0439453,0.012738,
6424,-0.0469971,0.0130554,
6426,-0.0012207,0.0130066,
6428,-0.00366211,0.0129089,
6430,-0.00305176,0.0128113,
6432,0.0170898,0.0128296,
6434,0.0140381,0.012677,
6436,-0.0567627,0.0130676,
6438,0.00854492,0.0129639,
6440,0.0189209,0.0131348,
6442,-0.00305176,0.0130981,
6444,-0.0317383,0.0132568,
6446,-0.0323486,0.0135071,
6448,-0.012207,0.0134094,
6450,0.0012207,0.0131348,
6452,-0.0183105,0.0131042,
6454,-0.0152588,0.0131165,
6456,-0.000610352,0.0131226,
6458,-0.0109863,0.0130859,
6460,-0.00427246,0.0129883,
6462,0.0115967,0.0130981,
6464,0.00244141,0.0130676,
6466,0.00488281,0.0130493,
6468,-0.00183105,0.0129456,
6470,-0.00610352,0.0129089,
6472,0.00915527,0.0129578,
6474,0.0213623,0.0130554,
6476,0.0262451,0.0131775,
6478,-0.0280762,0.0133301,
6480,0.00305176,0.0133423,
6482,0.00976563,0.0133911,
6484,-0.0115967,0.013501,
6486,-0.020752,0.0136597,
6488,-0.00671387,0.0136536,
6490,0.00732422,0.0136597,
6492,-0.0305176,0.0138306,
6494,-0.00183105,0.0136414,
6496,0.00183105,0.0135559,
6498,-0.000610352,0.0135498,
6500,0.00549316,0.0133911,
6502,-0.0170898,0.0133606,
6504,-0.0189209,0.0133301,
6506,-0.0140381,0.0134338,
6508,0.000610352,0.0133667,
6510,-0.0012207,0.0132385,
6512,-0.0219727,0.0131348,
6514,0.000610352,0.0131287,
6516,-0.00549316,0.013092,
6518,0.00671387,0.0130371,
6520,0,0.012738,
6522,-0.0262451,0.0127197,
6524,0.00610352,0.0127258,
6526,-0.0262451,0.0129272,
6528,-0.0158691,0.0128052,
6530,-0.012207,0.0128845,
6532,-0.0140381,0.0129333,
6534,0.0219727,0.0129822,
6536,-0.0250244,0.0131104,
6538,-0.0146484,0.013031,
6540,0.0012207,0.0129211,
6542,0.00976563,0.0129333,
6544,0.00549316,0.0129456,
6546,-0.0323486,0.0131897,
6548,0.000610352,0.0130371,
6550,0.0152588,0.0130737,
6552,-0.0152588,0.0131775,
6554,-0.0280762,0.0133728,
6556,0.0262451,0.0135376,
6558,-0.00915527,0.0136292,
6560,-0.0280762,0.0138855,
6562,-0.0158691,0.0139465,
6564,-0.0244141,0.0138733,
6566,-0.0115967,0.0138855,
6568,-0.0213623,0.0138367,
6570,-0.0158691,0.0139526,
6572,-0.0219727,0.0141724,
6574,-0.00305176,0.0139709,
6576,-0.00183105,0.0139404,
6578,-0.000610352,0.0138245,
6580,-0.00305176,0.0138184,
6582,-0.00976563,0.0137634,
6584,-0.00854492,0.0138184,
6586,-0.00305176,0.0138184,
6588,-0.00549316,0.0137024,
6590,0.0128174,0.0137756,
6592,0.010376,0.0135986,
6594,-0.0134277,0.0136597,
6596,-0.0115967,0.0135925,
6598,0.0213623,0.0137756,
6600,-0.0146484,0.013739,
6602,0.0286865,0.0138,
6604,-0.0177002,0.0137939,
6606,-0.00671387,0.0136169,
6608,-0.00366211,0.0136475,
6610,0.00366211,0.0135681,
6612,-0.0183105,0.0137268,
6614,-0.0164795,0.0135193,
6616,0.0109863,0.0134399,
6618,-0.000610352,0.0131897,
6620,-0.0341797,0.0134766,
6622,-0.00671387,0.0131042,
6624,-0.00610352,0.0126953,
6626,-0.0164795,0.0128479,
6628,-0.0012207,0.0128235,
6630,-0.010376,0.0128967,
6632,-0.00244141,0.0127502,
6634,0.00366211,0.0126465,
6636,-0.0109863,0.0121887,
6638,-0.00671387,0.0121704,
6640,-0.0012207,0.0119934,
6642,0.00488281,0.0120117,
6644,0.0244141,0.0119385,
6646,0.00366211,0.0116516,
6648,-0.020752,0.0117371,
6650,0.0201416,0.0119263,
6652,-0.00549316,0.0117981,
6654,-0.0311279,0.0119568,
6656,0.00854492,0.0120361,
6658,0.00488281,0.0119751,
6660,-0.03479,0.0122803,
6662,-0.0158691,0.012323,
6664,0.00488281,0.0123474,
6666,-0.00305176,0.0123291,
6668,-0.00366211,0.0123474,
6670,0.00915527,0.0123779,
6672,0.00305176,0.0123169,
6674,-0.0109863,0.0122131,
6676,-0.010376,0.0120544,
6678,-0.0128174,0.0119019,
6680,-0.022583,0.0120972,
6682,-0.0140381,0.0121399,
6684,-0.0280762,0.0123047,
6686,-0.010376,0.0122009,
6688,-0.012207,0.0122559,
6690,-0.0012207,0.0121948,
6692,-0.00427246,0.0119324,
6694,0.00915527,0.0120056,
6696,-0.0140381,0.0121277,
6698,0.00427246,0.0121643,
6700,-0.00488281,0.0121582,
6702,-0.0109863,0.0120972,
6704,-0.00244141,0.0119324,
6706,-0.00610352,0.011853,
6708,-0.0170898,0.0120178,
6710,-0.0134277,0.0121399,
6712,0.012207,0.0120422,
6714,0.00488281,0.012085,
6716,-0.00671387,0.0120972,
6718,-0.00793457,0.0121094,
6720,0.0152588,0.012262,
6722,-0.0183105,0.0121826,
6724,0.00183105,0.0121399,
6726,0.00854492,0.0119629,
6728,-0.0012207,0.0118164,
6730,-0.0152588,0.0118469,
6732,0.00305176,0.0117371,
6734,-0.00793457,0.0115967,
6736,0.020752,0.011554,
6738,-0.022583,0.0116333,
6740,-0.0140381,0.0117615,
6742,0.00244141,0.0116882,
6744,-0.0201416,0.0118347,
6746,0.00366211,0.0115479,
6748,-0.00732422,0.011615,
6750,-0.00427246,0.0115051,
6752,0.0189209,0.0115417,
6754,0.0012207,0.0112732,
6756,-0.00671387,0.0110779,
6758,0.0183105,0.0111694,
6760,-0.0189209,0.0110779,
6762,-0.0146484,0.0110657,
6764,0.0305176,0.0111267,
6766,-0.0189209,0.0112,
6768,-0.032959,0.0113159,
6770,-0.0317383,0.0114746,
6772,0.0012207,0.0112671,
6774,0.00427246,0.0112793,
6776,-0.0231934,0.0114929,
6778,-0.0335693,0.0118225,
6780,-0.00610352,0.011853,
6782,-0.0115967,0.0118713,
6784,0,0.0117859,
6786,-0.022583,0.0119812,
6788,-0.00854492,0.0120117,
6790,0.00488281,0.0119324,
6792,-0.00366211,0.0118652,
6794,-0.0256348,0.0119873,
6796,0.00183105,0.0118896,
6798,0.00366211,0.0117126,
6800,-0.0177002,0.0117432,
6802,-0.0134277,0.0115906,
6804,-0.00671387,0.0114807,
6806,0.000610352,0.0114197,
6808,-0.00427246,0.0114258,
6810,-0.0231934,0.0116211,
6812,-0.0115967,0.011554,
6814,-0.00671387,0.0114563,
6816,-0.0012207,0.0113586,
6818,-0.00488281,0.0114014,
6820,0.0012207,0.0110718,
6822,0.022583,0.0112305,
6824,-0.0177002,0.0113464,
6826,-0.00549316,0.0112366,
6828,0.000610352,0.0112305,
6830,0.00915527,0.0112183,
6832,-0.00915527,0.0112854,
6834,-0.0299072,0.0115479,
6836,-0.010376,0.0115417,
6838,-0.00427246,0.0115173,
6840,-0.0140381,0.0116455,
6842,-0.0164795,0.0117615,
6844,0.0115967,0.0116333,
6846,0.0231934,0.0118286,
6848,-0.00671387,0.0116882,
6850,0.0115967,0.0116028,
6852,-0.00915527,0.0116394,
6854,-0.00976563,0.0114258,
6856,0.00976563,0.011438,
6858,-0.00610352,0.0114502,
6860,-0.00183105,0.0111206,
6862,-0.0012207,0.0109741,
6864,-0.0292969,0.0112183,
6866,-0.0146484,0.0113342,
6868,0.0183105,0.0114807,
6870,0.0115967,0.0115051,
6872,-0.0183105,0.0116577,
6874,-0.0256348,0.0118042,
6876,-0.0183105,0.0118835,
6878,0.0183105,0.0119385,
6880,-0.0219727,0.0119324,
6882,-0.0012207,0.0118042,
6884,-0.0164795,0.0116882,
6886,-0.0244141,0.0118286,
6888,0.00549316,0.0117615,
6890,0.00305176,0.0117798,
6892,0.00732422,0.0118103,
6894,-0.0219727,0.0119385,
6896,-0.00244141,0.0118225,
6898,0.00183105,0.0117981,
6900,-0.012207,0.0118713,
6902,0.00793457,0.0118408,
6904,-0.022583,0.0120422,
6906,-0.00671387,0.0120483,
6908,-0.010376,0.0119812,
6910,-0.0170898,0.0120178,
6912,0.00488281,0.0119446,
6914,-0.00183105,0.0119141,
6916,-0.00488281,0.0118958,
6918,0.000610352,0.0118225,
6920,0.0134277,0.0118042,
6922,-0.00610352,0.0116821,
6924,0,0.0116638,
6926,0.00305176,0.0116089,
6928,-0.00610352,0.0116577,
6930,-0.020752,0.0117126,
6932,-0.010376,0.0117859,
6934,-0.00549316,0.0117615,
6936,-0.00488281,0.0116028,
6938,0.0012207,0.0113892,
6940,0.0146484,0.0113953,
6942,-0.0115967,0.0114868,
6944,-0.020752,0.0114929,
6946,0.0201416,0.0116577,
6948,0.00671387,0.0116516,
6950,0.00549316,0.0116638,
6952,0.0128174,0.0116028,
6954,-0.0213623,0.0118042,
6956,0.0115967,0.011853,
6958,0.0292969,0.0119629,
6960,-0.0360107,0.0121338,
6962,0.00183105,0.0120056,
6964,0.00366211,0.0117371,
6966,-0.00610352,0.0116089,
6968,-0.00488281,0.0113281,
6970,-0.00427246,0.0110535,
6972,-0.00915527,0.0111328,
6974,-0.0317383,0.0114075,
6976,0.00244141,0.0112,
6978,0.0164795,0.0110291,
6980,-0.00305176,0.0109985,
6982,-0.012207,0.0110046,
6984,0.0012207,0.0110168,
6986,0.0134277,0.0109253,
6988,0.000610352,0.0108459,
6990,-0.020752,0.0110046,
6992,0.0134277,0.0111023,
6994,-0.0128174,0.0109741,
6996,-0.0213623,0.0111694,
6998,0.00793457,0.0112122,
7000,-0.0201416,0.0112366,
7002,-0.0152588,0.0112549,
7004,-0.00793457,0.0112671,
7006,-0.00793457,0.0113403,
7008,0.0219727,0.0115173,
7010,0.00671387,0.0113525,
7012,-0.0219727,0.0114563,
7014,0.0012207,0.0114014,
7016,0.00488281,0.011438,
7018,-0.00793457,0.0114685,
7020,0.00183105,0.0114746,
7022,-0.0140381,0.0113892,
7024,0.00915527,0.0113037,
7026,-0.0360107,0.0116089,
7028,-0.0158691,0.0117615,
7030,0.022583,0.0118958,
7032,-0.00305176,0.0118347,
7034,-0.0183105,0.0117188,
7036,0.00793457,0.0116943,
7038,-0.0134277,0.0117859,
7040,-0.00610352,0.0117065,
7042,-0.00305176,0.0115723,
7044,-0.0012207,0.0114685,
7046,-0.0128174,0.0113647,
7048,-0.00976563,0.0113953,
7050,-0.012207,0.0114014,
7052,-0.00671387,0.011377,
7054,0.000610352,0.0112854,
7056,-0.00244141,0.0112122,
7058,-0.0286865,0.011438,
7060,-0.0115967,0.0115356,
7062,0.0146484,0.0116699,
7064,-0.0177002,0.011554,
7066,-0.00976563,0.0115051,
7068,0.00427246,0.0113647,
7070,0.00793457,0.0113281,
7072,-0.03479,0.0114929,
7074,-0.00305176,0.0112671,
7076,0.00610352,0.011145,
7078,0,0.0109619,
7080,-0.0195313,0.0109375,
7082,-0.0262451,0.0111877,
7084,-0.00854492,0.0111084,
7086,-0.00427246,0.010907,
7088,-0.00915527,0.0109436,
7090,-0.0177002,0.0110901,
7092,-0.0115967,0.0111328,
7094,0.0170898,0.011084,
7096,0.00305176,0.0110901,
7098,-0.0201416,0.0112732,
7100,0.010376,0.0112549,
7102,0.00366211,0.0112122,
7104,0.00915527,0.0110779,
7106,-0.00976563,0.0111084,
7108,-0.00488281,0.0110535,
7110,0.0140381,0.0110229,
7112,-0.0238037,0.0112122,
7114,-0.0250244,0.0114441,
7116,0.00366211,0.0114319,
7118,0.0134277,0.0115601,
7120,-0.00854492,0.0115112,
7122,-0.0170898,0.0116211,
7124,-0.020752,0.0118286,
7126,0.012207,0.0119202,
7128,0.0134277,0.0119934,
7130,-0.0262451,0.0120483,
7132,-0.00793457,0.0120239,
7134,-0.00793457,0.0120483,
7136,0.00549316,0.0120544,
7138,-0.0305176,0.0123474,
7140,0.00305176,0.0122314,
7142,-0.00488281,0.0121643,
7144,-0.0268555,0.0122253,
7146,-0.00427246,0.0120667,
7148,0,0.0119995,
7150,-0.00671387,0.0120117,
7152,-0.00671387,0.0119507,
7154,-0.0152588,0.0118896,
7156,-0.00854492,0.0118591,
7158,-0.010376,0.0116699,
7160,-0.0213623,0.0115234,
7162,-0.00305176,0.0115356,
7164,-0.00732422,0.0115723,
7166,-0.000610352,0.0115173,
7168,0,0.0114685,
7170,-0.0164795,0.0115906,
7172,-0.0305176,0.0118042,
7174,0.00854492,0.0115723,
7176,0.00183105,0.0115662,
7178,-0.0109863,0.0115112,
7180,-0.0256348,0.0117371,
7182,0.00366211,0.0116516,
7184,-0.0189209,0.0118286,
7186,-0.0170898,0.0118652,
7188,-0.00915527,0.0119507,
7190,0.012207,0.0118652,
7192,-0.0012207,0.0117432,
7194,-0.020752,0.0118225,
7196,-0.0012207,0.0116211,
7198,0.0115967,0.0116577,
7200,-0.00610352,0.0115173,
7202,-0.00854492,0.0114502,
7204,-0.0164795,0.0115356,
7206,-0.00183105,0.0114746,
7208,0.00183105,0.0112732,
7210,0.00854492,0.0112915,
7212,-0.0170898,0.0112427,
7214,-0.0152588,0.0113831,
7216,0.00610352,0.0113953,
7218,-0.0183105,0.011499,
7220,-0.0012207,0.0114929,
7222,-0.0140381,0.0114929,
7224,-0.0128174,0.0115295,
7226,-0.00671387,0.0112366,
7228,-0.0201416,0.0112793,
7230,-0.0158691,0.0112122,
7232,0.00305176,0.0112122,
7234,-0.00854492,0.0111145,
7236,0.00854492,0.0111206,
7238,0.00305176,0.0110168,
7240,0.0115967,0.0110718,
7242,-0.00610352,0.0111023,
7244,-0.00610352,0.0111511,
7246,0.0268555,0.0112915,
7248,-0.010376,0.0112976,
7250,-0.00244141,0.0112,
7252,0.00488281,0.0111816,
7254,0.00976563,0.0112732,
7256,0.0012207,0.011261,
7258,-0.00305176,0.0110046,
7260,-0.0463867,0.0113525,
7262,0.00610352,0.0112671,
7264,0.00549316,0.011145,
7266,-0.022583,0.0112732,
7268,-0.0195313,0.0114258,
7270,-0.0219727,0.0115662,
7272,0.00549316,0.0112732,
7274,0.000610352,0.0112488,
7276,0.00488281,0.0112366,
7278,-0.0146484,0.0113831,
7280,-0.00549316,0.0112427,
7282,0.00732422,0.0110535,
7284,0.00671387,0.0110352,
7286,0.0311279,0.0113037,
7288,-0.00671387,0.0112793,
7290,-0.0378418,0.0114807,
7292,-0.00488281,0.0114136,
7294,0.0262451,0.0115051,
7296,0.0152588,0.0116272,
7298,-0.0469971,0.0118958,
7300,-0.010376,0.0118958,
7302,-0.0170898,0.01203,
7304,-0.0164795,0.0121033,
7306,-0.0219727,0.0122253,
7308,-0.010376,0.0122803,
7310,-0.0115967,0.0122559,
7312,-0.00976563,0.0121155,
7314,-0.00549316,0.0119202,
7316,-0.0134277,0.0120178,
7318,0.00793457,0.0119629,
7320,0,0.0118774,
7322,-0.00488281,0.0117554,
7324,-0.0177002,0.0117249,
7326,0.0158691,0.0117615,
7328,0.010376,0.011731,
7330,-0.0109863,0.0115784,
7332,-0.0311279,0.0118103,
7334,0.00305176,0.0117615,
7336,0.00183105,0.0117249,
7338,-0.00610352,0.0114807,
7340,0.00183105,0.0114685,
7342,-0.00244141,0.0114441,
7344,-0.0177002,0.0113525,
7346,-0.000610352,0.0113159,
7348,0.00854492,0.0114014,
7350,0.00305176,0.0113647,
7352,0.00305176,0.0113281,
7354,-0.0219727,0.0113953,
7356,-0.0134277,0.0114441,
7358,0.0109863,0.0114502,
7360,-0.010376,0.0113403,
7362,-0.00854492,0.0113953,
7364,-0.00488281,0.0113708,
7366,-0.0183105,0.0115479,
7368,-0.00305176,0.0115784,
7370,0.0012207,0.0114258,
7372,0.00976563,0.0112183,
7374,-0.0238037,0.0113708,
7376,-0.00610352,0.0114136,
7378,0.000610352,0.0113098,
7380,-0.00793457,0.0111328,
7382,0.000610352,0.0111023,
7384,-0.0268555,0.0111816,
7386,-0.00671387,0.0110779,
7388,-0.00244141,0.0110107,
7390,0.012207,0.0110107,
7392,-0.0189209,0.0111877,
7394,-0.0219727,0.0112,
7396,0.00183105,0.0112061,
7398,0.00610352,0.0111511,
7400,-0.00732422,0.0111633,
7402,-0.00305176,0.0111084,
7404,0.000610352,0.0109497,
7406,0.0183105,0.0111145,
7408,0.00671387,0.0111633,
7410,-0.00671387,0.011145,
7412,0.000610352,0.0109802,
7414,0.0286865,0.0111145,
7416,-0.010376,0.0111572,
7418,-0.0012207,0.0109863,
7420,-0.0238037,0.0112122,
7422,-0.0238037,0.0113098,
7424,-0.0152588,0.0113342,
7426,-0.0134277,0.0114014,
7428,-0.020752,0.0114075,
7430,-0.0146484,0.0113953,
7432,-0.0158691,0.0115234,
7434,-0.020752,0.0116455,
7436,-0.0012207,0.0115723,
7438,-0.0183105,0.0117249,
7440,0.0201416,0.0118103,
7442,0.00244141,0.0117737,
7444,-0.0183105,0.0118958,
7446,-0.00854492,0.0117126,
7448,0.0244141,0.011853,
7450,0.00427246,0.0118713,
7452,-0.0177002,0.0119995,
7454,-0.012207,0.0120239,
7456,0.00488281,0.0120605,
7458,-0.00549316,0.012085,
7460,-0.00549316,0.011676,
7462,-0.00366211,0.0116516,
7464,-0.0170898,0.0117676,
7466,-0.0158691,0.0117004,
7468,-0.00549316,0.0115601,
7470,-0.010376,0.0114441,
7472,-0.0128174,0.0115173,
7474,-0.00915527,0.0116028,
7476,-0.00488281,0.0116028,
7478,-0.00610352,0.0115173,
7480,-0.00671387,0.0115295,
7482,-0.0109863,0.0115662,
7484,-0.00610352,0.0115601,
7486,-0.00366211,0.0112854,
7488,-0.00183105,0.0112366,
7490,-0.00610352,0.0109192,
7492,-0.00244141,0.0108948,
7494,0.0146484,0.0107788,
7496,0.00976563,0.0107239,
7498,0.0140381,0.0103943,
7500,0.000610352,0.0102966,
7502,0.00793457,0.0102051,
7504,0.0170898,0.0102112,
7506,-0.00427246,0.0100342,
7508,0,0.00993042,
7510,-0.03479,0.0101624,
7512,-0.0140381,0.0102051,
7514,-0.0128174,0.0102783,
7516,-0.0115967,0.01026,
7518,-0.0299072,0.0104797,
7520,0.000610352,0.0104858,
7522,0.00244141,0.0104614,
7524,-0.00976563,0.0103821,
7526,-0.000610352,0.0102295,
7528,0.0128174,0.0102539,
7530,-0.00793457,0.0102234,
7532,-0.00549316,0.00996704,
7534,-0.00183105,0.00995483,
7536,-0.00549316,0.00999146,
7538,-0.0134277,0.0100647,
7540,-0.00793457,0.0101257,
7542,-0.0012207,0.0101135,
7544,-0.00976563,0.0100342,
7546,-0.00305176,0.0100586,
7548,-0.00793457,0.0100525,
7550,-0.0164795,0.0101868,
7552,0.0109863,0.0102661,
7554,-0.0164795,0.0102112,
7556,-0.0262451,0.0103394,
7558,0.00854492,0.0103149,
7560,-0.00183105,0.0102295,
7562,-0.0262451,0.0104065,
7564,-0.00793457,0.010437,
7566,-0.00610352,0.0103149,
7568,0.00610352,0.0103455,
7570,0.0115967,0.0104492,
7572,-0.0134277,0.0104858,
7574,-0.0219727,0.0104675,
7576,0.00976563,0.0105042,
7578,0.00854492,0.0105835,
7580,-0.0231934,0.0107361,
7582,-0.012207,0.0108521,
7584,0.00488281,0.0106323,
7586,0.0421143,0.0109863,
7588,-0.0177002,0.0111389,
7590,-0.00732422,0.0110901,
7592,0.00976563,0.0109985,
7594,-0.00671387,0.0108459,
7596,0.00183105,0.0108459,
7598,-0.00793457,0.0108643,
7600,-0.00854492,0.0108765,
7602,-0.0256348,0.0111023,
7604,-0.0311279,0.0114075,
7606,0,0.0112244,
7608,-0.0012207,0.0111694,
7610,0.0158691,0.011261,
7612,-0.0115967,0.0113708,
7614,-0.0164795,0.0112488,
7616,0.000610352,0.0111511,
7618,0.00244141,0.0111633,
7620,-0.00854492,0.0110107,
7622,-0.0164795,0.0109375,
7624,0.00366211,0.0108215,
7626,-0.0177002,0.0108643,
7628,-0.00244141,0.0106812,
7630,0.010376,0.0106384,
7632,0.0268555,0.0107483,
7634,-0.012207,0.0106628,
7636,-0.0201416,0.0108521,
7638,-0.00915527,0.0107605,
7640,0.00915527,0.0106506,
7642,-0.0109863,0.0107361,
7644,-0.0323486,0.0108765,
7646,-0.0134277,0.0109253,
7648,-0.0115967,0.0107971,
7650,-0.0219727,0.0109741,
7652,0.00915527,0.0108887,
7654,0.0195313,0.0109619,
7656,0.0396729,0.0113098,
7658,-0.0421143,0.011676,
7660,-0.0164795,0.0117859,
7662,0.0292969,0.0120422,
7664,-0.010376,0.0119751,
7666,-0.0189209,0.0120056,
7668,0.00183105,0.011969,
7670,-0.0164795,0.01203,
7672,-0.020752,0.0121094,
7674,0.00610352,0.0120789,
7676,0.0012207,0.0120422,
7678,-0.00610352,0.0120422,
7680,-0.0170898,0.012146,
7682,-0.00732422,0.0121094,
7684,-0.0115967,0.0121643,
7686,-0.0268555,0.0123962,
7688,-0.0177002,0.0125549,
7690,-0.00244141,0.0125183,
7692,-0.0128174,0.0126221,
7694,-0.0152588,0.0126282,
7696,0.012207,0.0126526,
7698,-0.00427246,0.0125549,
7700,-0.0115967,0.0126648,
7702,0.00854492,0.0126709,
7704,-0.012207,0.0126221,
7706,0.00732422,0.0126526,
7708,-0.0012207,0.0126648,
7710,0.000610352,0.012323,
7712,-0.00244141,0.012207,
7714,-0.012207,0.0122009,
7716,0.0109863,0.0121948,
7718,-0.00305176,0.0119263,
7720,-0.00305176,0.0119507,
7722,-0.00549316,0.0119812,
7724,-0.00976563,0.0119812,
7726,-0.00854492,0.0120605,
7728,-0.0299072,0.0122314,
7730,0.00305176,0.0121826,
7732,-0.00671387,0.0121948,
7734,-0.0140381,0.0123169,
7736,-0.0128174,0.0123901,
7738,-0.00427246,0.0122986,
7740,-0.00854492,0.0123047,
7742,-0.00976563,0.0123901,
7744,-0.00427246,0.0123352,
7746,0.0109863,0.0124146,
7748,0.00305176,0.0123657,
7750,-0.0317383,0.0125183,
7752,-0.00488281,0.0124573,
7754,0.0140381,0.0124329,
7756,-0.00427246,0.0122131,
7758,-0.0189209,0.0123169,
7760,-0.012207,0.0124207,
7762,-0.0115967,0.0122742,
7764,0.0164795,0.0123596,
7766,-0.00793457,0.0123779,
7768,-0.0183105,0.0125,
7770,-0.00976563,0.0124817,
7772,0.00244141,0.0123718,
7774,0,0.0121521,
7776,-0.00183105,0.0120728,
7778,-0.0213623,0.0122009,
7780,0.0146484,0.0121155,
7782,0.0311279,0.0123047,
7784,-0.0238037,0.0124939,
7786,-0.0274658,0.0123474,
7788,0.00488281,0.0122192,
7790,0.00549316,0.0122009,
7792,-0.00488281,0.0121521,
7794,-0.0262451,0.0123474,
7796,-0.0170898,0.0125,
7798,-0.00976563,0.0125183,
7800,0.00549316,0.0124878,
7802,-0.0170898,0.0124023,
7804,-0.0134277,0.0122253,
7806,0.0128174,0.0123535,
7808,-0.0146484,0.0124878,
7810,-0.0213623,0.0125427,
7812,0.00427246,0.0124695,
7814,0.00366211,0.0123413,
7816,-0.0183105,0.0125183,
7818,0,0.0124939,
7820,-0.00244141,0.0124329,
7822,-0.00610352,0.0123291,
7824,-0.010376,0.0123962,
7826,-0.00732422,0.0122925,
7828,-0.00183105,0.0122864,
7830,-0.0201416,0.012384,
7832,-0.00732422,0.0121887,
7834,-0.0134277,0.0122009,
7836,-0.00854492,0.012085,
7838,0.0146484,0.0121399,
7840,0.0128174,0.0121765,
7842,0.0231934,0.0122986,
7844,-0.000610352,0.0119812,
7846,0.0213623,0.0120605,
7848,0.00244141,0.011969,
7850,-0.0189209,0.0119385,
7852,0.00427246,0.0118896,
7854,-0.0189209,0.0118835,
7856,-0.0286865,0.0117737,
7858,-0.0268555,0.0116211,
7860,-0.03479,0.0118042,
7862,-0.0231934,0.0117432,
7864,-0.00549316,0.0116943,
7866,-0.00976563,0.0116028,
7868,-0.00549316,0.0116394,
7870,-0.0268555,0.0117432,
7872,0.00488281,0.0115845,
7874,0.000610352,0.0115295,
7876,0.00427246,0.0115601,
7878,-0.0140381,0.0116394,
7880,0.00610352,0.0115295,
7882,-0.0292969,0.0117493,
7884,-0.00488281,0.0116821,
7886,-0.0012207,0.0114258,
7888,-0.00915527,0.0113403,
7890,-0.0140381,0.0114563,
7892,-0.0164795,0.0114929,
7894,-0.0195313,0.0115356,
7896,-0.00854492,0.011499,
7898,-0.00915527,0.0115479,
7900,-0.00183105,0.0114502,
7902,0.00976563,0.0114624,
7904,-0.0128174,0.0114685,
7906,0.0134277,0.0115295,
7908,0,0.0115173,
7910,-0.00671387,0.0115784,
7912,-0.000610352,0.0115601,
7914,0.00244141,0.0114624,
7916,0.00427246,0.0113953,
7918,-0.020752,0.0115723,
7920,-0.00305176,0.0115723,
7922,0.00427246,0.0115601,
7924,-0.010376,0.0115662,
7926,-0.012207,0.0116028,
7928,-0.0134277,0.011438,
7930,0.00488281,0.0114563,
7932,-0.0201416,0.0115906,
7934,-0.0201416,0.0116516,
7936,-0.00488281,0.0115723,
7938,-0.0146484,0.011676,
7940,-0.0140381,0.011731,
7942,0.00427246,0.011676,
7944,-0.0250244,0.0118835,
7946,0.00305176,0.0118042,
7948,0.000610352,0.0117798,
7950,-0.0170898,0.0116333,
7952,-0.010376,0.0116882,
7954,-0.00915527,0.0116394,
7956,-0.00488281,0.0116455,
7958,-0.00793457,0.0115356,
7960,-0.00976563,0.0115112,
7962,-0.0128174,0.0115234,
7964,0.00305176,0.0113892,
7966,0.010376,0.0114136,
7968,-0.00793457,0.0113098,
7970,0.00854492,0.0112976,
7972,0.00610352,0.0113342,
7974,-0.0299072,0.0116333,
7976,0.0012207,0.0116272,
7978,0.010376,0.0115173,
7980,-0.0213623,0.0115845,
7982,-0.0256348,0.0115295,
7984,-0.00671387,0.0113586,
7986,0,0.011084,
7988,-0.020752,0.0112427,
7990,-0.00549316,0.0112427,
7992,-0.00732422,0.0112671,
7994,-0.00671387,0.0110718,
7996,-0.00244141,0.0109253,
7998,0.0274658,0.0111023,
8000,0.032959,0.011377,
8002,-0.0170898,0.011377,
8004,-0.0445557,0.0116882,
8006,0.0238037,0.0117981,
8008,-0.0140381,0.011792,
8010,-0.012207,0.0117004,
8012,-0.0274658,0.0119324,
8014,-0.0286865,0.0121826,
8016,-0.0311279,0.0123108,
8018,-0.0219727,0.0125305,
8020,-0.0115967,0.0126221,
8022,-0.0115967,0.012677,
8024,0.0012207,0.0125854,
8026,0.00305176,0.0125427,
8028,-0.00183105,0.0125427,
8030,-0.0177002,0.0125183,
8032,-0.0146484,0.0125916,
8034,-0.010376,0.012561,
8036,0.00793457,0.0125549,
8038,-0.0195313,0.0126038,
8040,-0.0189209,0.0126648,
8042,0.00305176,0.0124634,
8044,-0.00793457,0.0125366,
8046,-0.012207,0.0124451,
8048,-0.00488281,0.0124695,
8050,0.0195313,0.0124756,
8052,0.0170898,0.0126038,
8054,-0.0305176,0.0127197,
8056,-0.00305176,0.0124634,
8058,0,0.0121948,
8060,-0.00427246,0.0118896,
8062,-0.012207,0.0117798,
8064,-0.00793457,0.0118042,
8066,0.000610352,0.0117126,
8068,-0.0152588,0.0118103,
8070,-0.00976563,0.0116394,
8072,0.012207,0.0117126,
8074,0,0.0117065,
8076,-0.00244141,0.0116882,
8078,-0.0109863,0.0116577,
8080,-0.0128174,0.0117249,
8082,0.00427246,0.0114746,
8084,0.0268555,0.0116943,
8086,-0.0317383,0.0119995,
8088,-0.0286865,0.0121948,
8090,-0.0012207,0.0120667,
8092,0,0.0119019,
8094,-0.0183105,0.0118896,
8096,-0.0170898,0.0119751,
8098,-0.0256348,0.0121399,
8100,-0.0183105,0.0123047,
8102,-0.0164795,0.0123718,
8104,-0.00671387,0.0123108,
8106,0,0.0121765,
8108,0.00671387,0.0122437,
8110,0.00671387,0.0122437,
8112,-0.010376,0.0123413,
8114,0.0158691,0.0124756,
8116,0.0012207,0.0124451,
8118,0,0.0122375,
8120,-0.0189209,0.0123962,
8122,-0.000610352,0.0123596,
8124,-0.00183105,0.0122742,
8126,-0.0134277,0.0122864,
8128,-0.0115967,0.0122681,
8130,-0.0231934,0.0124512,
8132,-0.0170898,0.0124207,
8134,-0.00305176,0.0122498,
8136,0.0177002,0.0123779,
8138,-0.0305176,0.0125366,
8140,-0.00976563,0.0124939,
8142,0.00427246,0.0124939,
8144,-0.0250244,0.0124939,
8146,0.0109863,0.0125732,
8148,-0.00976563,0.0126648,
8150,-0.0268555,0.0127625,
8152,-0.00427246,0.0127014,
8154,-0.00915527,0.0127014,
8156,-0.00427246,0.0126953,
8158,0.00244141,0.0126404,
8160,-0.0012207,0.0125549,
8162,-0.0109863,0.0125366,
8164,0.00427246,0.0125488,
8166,-0.00366211,0.0124817,
8168,-0.0115967,0.0125183,
8170,-0.0280762,0.0127136,
8172,-0.00854492,0.012738,
8174,-0.00854492,0.0125244,
8176,-0.0201416,0.0127136,
8178,-0.0128174,0.012738,
8180,0,0.0125244,
8182,-0.00732422,0.0123413,
8184,-0.0134277,0.0124084,
8186,0.00610352,0.0124695,
8188,-0.012207,0.012384,
8190,0.00549316,0.012384,
8192,-0.00549316,0.0123657,
8194,0,0.0122986,
8196,-0.00854492,0.0123596,
8198,-0.00549316,0.0121399,
8200,-0.00183105,0.0118286,
8202,0,0.0116577,
8204,-0.0152588,0.0113647,
8206,0.00366211,0.0111633,
8208,-0.0152588,0.0111755,
8210,-0.0170898,0.0112244,
8212,-0.00732422,0.0110229,
8214,-0.0189209,0.0109253,
8216,-0.0244141,0.0108582,
8218,-0.0244141,0.0108826,
8220,-0.00732422,0.0108398,
8222,0.012207,0.0108459,
8224,-0.00915527,0.0109253,
8226,-0.0128174,0.0110229,
8228,-0.00305176,0.0110352,
8230,0.0012207,0.0108704,
8232,0.0115967,0.0108398,
8234,-0.0109863,0.0108459,
8236,0.0146484,0.0109131,
8238,0.0012207,0.01073,
8240,-0.00976563,0.0106384,
8242,-0.0115967,0.0107239,
8244,-0.0115967,0.0107605,
8246,0.00488281,0.0106873,
8248,-0.00366211,0.010675,
8250,0.012207,0.0106018,
8252,-0.0158691,0.0105896,
8254,-0.020752,0.0104919,
8256,0.00305176,0.0104919,
8258,-0.00732422,0.0105652,
8260,-0.012207,0.0106445,
8262,0.00488281,0.0105713,
8264,-0.0152588,0.0106445,
8266,-0.0341797,0.0109802,
8268,0.00549316,0.0108826,
8270,0.012207,0.010907,
8272,-0.00366211,0.0108215,
8274,-0.0177002,0.0109985,
8276,-0.0195313,0.0111694,
8278,0,0.0110596,
8280,-0.00427246,0.0109741,
8282,-0.0244141,0.0111755,
8284,-0.0280762,0.0111877,
8286,-0.0164795,0.0110352,
8288,-0.0201416,0.0109497,
8290,-0.0170898,0.0111084,
8292,-0.0231934,0.0113403,
8294,0.00183105,0.0111755,
8296,0.00915527,0.0110962,
8298,0.0012207,0.0108521,
8300,-0.00671387,0.0107361,
8302,0.000610352,0.0105774,
8304,-0.00976563,0.0106079,
8306,-0.00793457,0.0106873,
8308,0.00244141,0.0106445,
8310,0.00305176,0.0106079,
8312,-0.0195313,0.0106995,
8314,-0.00793457,0.0106201,
8316,-0.000610352,0.010614,
8318,0.00610352,0.010675,
8320,0.00915527,0.0105774,
8322,-0.012207,0.0106934,
8324,0.0219727,0.0108948,
8326,0.0109863,0.0108704,
8328,-0.020752,0.0109619,
8330,-0.0170898,0.0109009,
8332,-0.00427246,0.0107727,
8334,-0.00610352,0.0108032,
8336,-0.00549316,0.0106812,
8338,-0.0231934,0.0106079,
8340,-0.00427246,0.010553,
8342,-0.0158691,0.0106689,
8344,-0.0140381,0.0105591,
8346,0.0292969,0.0107422,
8348,-0.0158691,0.0108032,
8350,-0.0140381,0.010675,
8352,0,0.0106323,
8354,-0.0152588,0.0106934,
8356,-0.00976563,0.0107483,
8358,-0.012207,0.0108459,
8360,-0.0109863,0.0109436,
8362,-0.0115967,0.0109497,
8364,-0.0140381,0.0110474,
8366,-0.00793457,0.0110901,
8368,-0.00732422,0.0110474,
8370,0.0012207,0.0107788,
8372,-0.0115967,0.0108093,
8374,0.000610352,0.01073,
8376,0.0012207,0.0105408,
8378,-0.00305176,0.0104431,
8380,0.00183105,0.0104614,
8382,-0.00549316,0.0104431,
8384,-0.00610352,0.0103699,
8386,0.012207,0.0104309,
8388,-0.012207,0.0104309,
8390,-0.00244141,0.0104004,
8392,0.00366211,0.0103821,
8394,-0.00793457,0.0104614,
8396,0.00305176,0.0104065,
8398,-0.00793457,0.0104309,
8400,-0.00244141,0.010437,
8402,0.00305176,0.0104675,
8404,0.00732422,0.0103882,
8406,-0.0158691,0.0105103,
8408,0.00610352,0.0104187,
8410,-0.00549316,0.0103027,
8412,-0.00732422,0.0103027,
8414,0.00610352,0.0101746,
8416,-0.00488281,0.00997925,
8418,-0.00671387,0.00980225,
8420,0.00183105,0.00974731,
8422,-0.00610352,0.00968628,
8424,-0.00793457,0.00967407,
8426,0.0134277,0.00968018,
8428,-0.00549316,0.00970459,
8430,-0.00549316,0.00974731,
8432,-0.000610352,0.00963745,
8434,0.0231934,0.00975952,
8436,0.00427246,0.00965576,
8438,-0.0256348,0.0098999,
8440,-0.0012207,0.00981445,
8442,0.00915527,0.00979004,
8444,-0.010376,0.00977783,
8446,-0.0152588,0.00988159,
8448,-0.00610352,0.00990601,
8450,0,0.00978394,
8452,0.00793457,0.00970459,
8454,-0.0231934,0.009729,
8456,-0.00976563,0.00979614,
8458,0.000610352,0.009729,
8460,0.0134277,0.00974121,
8462,0.00854492,0.00977783,
8464,-0.0146484,0.00977173,
8466,-0.0354004,0.00978394,
8468,-0.00732422,0.00980225,
8470,0.0170898,0.00985107,
8472,0.00610352,0.00987549,
8474,-0.00183105,0.0097168,
8476,-0.0250244,0.00977173,
8478,-0.0213623,0.00998535,
8480,0.00305176,0.00997314,
8482,0,0.009729,
8484,-0.0323486,0.00977173,
8486,-0.0134277,0.00974121,
8488,-0.0250244,0.00979004,
8490,-0.0012207,0.00963135,
8492,-0.0158691,0.00955811,
8494,-0.0158691,0.00969849,
8496,0.00427246,0.00964966,
8498,0.00366211,0.00967407,
8500,-0.0146484,0.00975342,
8502,0.0231934,0.00997925,
8504,0.0012207,0.0098938,
8506,-0.0164795,0.00997925,
8508,-0.00915527,0.0100464,
8510,0.00366211,0.0100525,
8512,-0.00854492,0.00994263,
8514,-0.012207,0.00998535,
8516,-0.00244141,0.0100037,
8518,-0.0201416,0.010144,
8520,-0.00488281,0.0101013,
8522,-0.000610352,0.00998535,
8524,-0.00244141,0.00979004,
8526,-0.0134277,0.00981445,
8528,-0.0140381,0.00974731,
8530,-0.00366211,0.00961304,
8532,0.000610352,0.00957642,
8534,-0.0213623,0.009729,
8536,-0.0195313,0.00986938,
8538,-0.00610352,0.00969849,
8540,-0.0152588,0.00980835,
8542,-0.00793457,0.009729,
8544,-0.0134277,0.0097229,
8546,-0.0109863,0.00953979,
8548,-0.00183105,0.00939941,
8550,0.0219727,0.00947876,
8552,0.00976563,0.00957642,
8554,-0.0311279,0.00973511,
8556,0.0109863,0.00974731,
8558,-0.00244141,0.00964966,
8560,0.00244141,0.00956421,
8562,0.010376,0.009552,
8564,-0.00549316,0.00946655,
8566,-0.00732422,0.00946045,
8568,-0.00732422,0.00946045,
8570,-0.0012207,0.00946045,
8572,-0.000610352,0.00935059,
8574,-0.00732422,0.00941772,
8576,0.00793457,0.00948486,
8578,0.0134277,0.00958862,
8580,-0.0109863,0.00968018,
8582,-0.0299072,0.00992432,
8584,0.00488281,0.00991211,
8586,0.0158691,0.00994873,
8588,-0.00244141,0.00985107,
8590,-0.0177002,0.0100037,
8592,-0.0195313,0.0101624,
8594,-0.0286865,0.0103699,
8596,0.000610352,0.0103455,
8598,-0.0250244,0.0105164,
8600,-0.0231934,0.0107239,
8602,-0.00305176,0.0107239,
8604,-0.0268555,0.0109192,
8606,-0.0164795,0.0109253,
8608,-0.0115967,0.0109802,
