Danna3Musculos_B-L01
Gráfico creado el:2026-06-09 14:52:20.219
Registro en:2026-06-09 14:52:43.799
2 mseg/muestras
2 canales
EMG
mV
EMG Integrado
mV-sec
milliSec,CH1,CH40,
,271584 samples,271584 samples,
0,-0.00488281,4.88281E-05,
2,-0.00976563,0.000146484,
4,-0.00854492,0.000231934,
6,-0.00549316,0.000286865,
8,-0.00610352,0.0003479,
10,-0.00244141,0.000372314,
12,-0.00366211,0.000408936,
14,-0.000610352,0.000415039,
16,-0.00671387,0.000482178,
18,-0.00549316,0.000537109,
20,-0.00366211,0.00057373,
22,-0.00610352,0.000634766,
24,-0.000610352,0.000640869,
26,-0.00671387,0.000708008,
28,-0.00610352,0.000769043,
30,-0.00366211,0.000805664,
32,-0.00854492,0.000891113,
34,-0.000610352,0.000897217,
36,0.00671387,0.000964355,
38,-0.010376,0.00106812,
40,-0.00366211,0.00110474,
42,-0.00732422,0.00117798,
44,-0.00244141,0.00120239,
46,-0.00549316,0.00125732,
48,-0.00854492,0.00134277,
50,-0.00549316,0.00139771,
52,-0.00549316,0.00145264,
54,-0.0115967,0.0015686,
56,-0.00305176,0.00159912,
58,0,0.00159912,
60,0.00305176,0.00162964,
62,-0.000610352,0.00163574,
64,-0.00732422,0.00170898,
66,-0.010376,0.00181274,
68,-0.00244141,0.00183716,
70,-0.00488281,0.00188599,
72,-0.00915527,0.00197754,
74,-0.00793457,0.00205688,
76,-0.010376,0.00216064,
78,-0.0134277,0.00229492,
80,-0.00244141,0.00231934,
82,-0.00854492,0.00240479,
84,-0.00488281,0.00245361,
86,0,0.00245361,
88,-0.00976563,0.00255127,
90,-0.000610352,0.00255737,
92,-0.00671387,0.00262451,
94,-0.0012207,0.00263672,
96,-0.00732422,0.00270996,
98,-0.00793457,0.00278931,
100,0.000610352,0.00279541,
102,-0.00549316,0.00285034,
104,-0.00732422,0.00292358,
106,-0.000610352,0.00292969,
108,-0.00244141,0.0029541,
110,-0.00183105,0.00297241,
112,-0.00610352,0.00303345,
114,-0.00305176,0.00306396,
116,-0.00244141,0.00308838,
118,-0.00183105,0.00310669,
120,-0.010376,0.00321045,
122,-0.00976563,0.00330811,
124,-0.00549316,0.00336304,
126,-0.00671387,0.00343018,
128,-0.00610352,0.00349121,
130,-0.00244141,0.00351562,
132,-0.00854492,0.00360107,
134,0.00793457,0.00368042,
136,-0.00976563,0.00377808,
138,-0.00549316,0.00383301,
140,0.0109863,0.00394287,
142,-0.0140381,0.00408325,
144,-0.00610352,0.00414429,
146,-0.00610352,0.00420532,
148,-0.00976563,0.00430298,
150,-0.00427246,0.0043457,
152,-0.010376,0.00444946,
154,-0.010376,0.00455322,
156,-0.00549316,0.00460815,
158,-0.00732422,0.0046814,
160,-0.00305176,0.00471191,
162,-0.00427246,0.00475464,
164,-0.00244141,0.00477905,
166,-0.00488281,0.00482788,
168,-0.00854492,0.00491333,
170,-0.00671387,0.00498047,
172,-0.00610352,0.0050415,
174,0,0.0050415,
176,-0.00976563,0.00513916,
178,-0.00793457,0.00521851,
180,-0.000610352,0.00522461,
182,-0.0109863,0.00533447,
184,0.000610352,0.00534058,
186,0.00671387,0.00540771,
188,-0.00976563,0.00550537,
190,-0.00183105,0.00552368,
192,-0.00671387,0.00559082,
194,-0.00244141,0.00561523,
196,0.00183105,0.00563354,
198,-0.0146484,0.00578003,
200,-0.00427246,0.00577393,
202,-0.00305176,0.00570679,
204,-0.00610352,0.00568237,
206,-0.00366211,0.00566406,
208,-0.00793457,0.00568237,
210,0.00305176,0.00568848,
212,-0.00610352,0.00571289,
214,0.00244141,0.0057312,
216,-0.00671387,0.0057312,
218,-0.00366211,0.00571289,
220,-0.00427246,0.00571899,
222,-0.00610352,0.00571899,
224,-0.00488281,0.00576172,
226,-0.00671387,0.00576172,
228,-0.00732422,0.00577393,
230,-0.00488281,0.00578613,
232,-0.0109863,0.00581055,
234,-0.00488281,0.00585327,
236,-0.00427246,0.00582886,
238,-0.00427246,0.00576782,
240,0.00183105,0.00574951,
242,-0.00854492,0.00576172,
244,-0.00671387,0.00580444,
246,-0.00488281,0.00579834,
248,-0.00793457,0.00579224,
250,-0.00244141,0.00576172,
252,-0.00610352,0.00576782,
254,-0.00427246,0.00569458,
256,-0.00366211,0.00570068,
258,-0.00549316,0.00575562,
260,-0.00854492,0.00581055,
262,-0.0012207,0.00581665,
264,-0.00488281,0.00579224,
266,-0.00671387,0.00575562,
268,-0.00976563,0.00582886,
270,-0.00976563,0.00587769,
272,-0.012207,0.0059082,
274,-0.00549316,0.00588379,
276,-0.00610352,0.00584106,
278,-0.00305176,0.0057373,
280,-0.00366211,0.00574951,
282,-0.0140381,0.00580444,
284,0.000610352,0.00576172,
286,-0.00183105,0.00578003,
288,-0.00244141,0.00570679,
290,-0.00427246,0.00574341,
292,-0.010376,0.00578003,
294,-0.00549316,0.00582275,
296,-0.00366211,0.00578613,
298,-0.00854492,0.00579224,
300,-0.00244141,0.00581055,
302,-0.00183105,0.00577393,
304,-0.00610352,0.00576172,
306,-0.0109863,0.00586548,
308,-0.00854492,0.00592651,
310,-0.00244141,0.00593262,
312,-0.00549316,0.00592651,
314,-0.00793457,0.00597534,
316,-0.010376,0.00605469,
318,-0.00488281,0.00608521,
320,-0.010376,0.00608521,
322,-0.00854492,0.006073,
324,-0.00305176,0.00604858,
326,-0.000610352,0.00598755,
328,-0.00183105,0.00594482,
330,-0.00549316,0.00597534,
332,-0.010376,0.00599365,
334,0.00183105,0.00593262,
336,-0.00488281,0.00588379,
338,-0.00793457,0.0059082,
340,-0.00244141,0.00582275,
342,-0.00732422,0.00575562,
344,-0.010376,0.00579834,
346,-0.00549316,0.00579224,
348,-0.012207,0.00581665,
350,-0.00183105,0.00579224,
352,-0.00793457,0.00576782,
354,-0.00793457,0.00574341,
356,-0.00610352,0.00574951,
358,-0.00732422,0.00574951,
360,-0.00427246,0.00576172,
362,-0.00610352,0.00578003,
364,-0.0012207,0.00576782,
366,-0.00488281,0.00576782,
368,-0.00671387,0.00574951,
370,0,0.00568237,
372,-0.00610352,0.00568237,
374,-0.00244141,0.00570679,
376,-0.00427246,0.00565186,
378,-0.000610352,0.00557861,
380,0.00244141,0.00559692,
382,-0.00915527,0.00557861,
384,-0.00610352,0.00563354,
386,0.0012207,0.00557861,
388,-0.00793457,0.0055603,
390,0,0.00554199,
392,-0.0109863,0.00558472,
394,-0.00854492,0.00564575,
396,-0.00671387,0.00569458,
398,-0.00732422,0.00562134,
400,0.000610352,0.00558472,
402,-0.00549316,0.00560913,
404,-0.00488281,0.00559692,
406,0.00488281,0.00560913,
408,-0.00305176,0.0055603,
410,-0.00671387,0.00559692,
412,-0.000610352,0.00554199,
414,-0.0012207,0.00552979,
416,0,0.00546265,
418,-0.00915527,0.00551758,
420,-0.00183105,0.00549316,
422,-0.0134277,0.00556641,
424,-0.00305176,0.0055481,
426,-0.00366211,0.00551758,
428,-0.00549316,0.00549927,
430,-0.00183105,0.00546875,
432,-0.00976563,0.00545654,
434,-0.00183105,0.00542603,
436,-0.00244141,0.00540771,
438,-0.00183105,0.0053833,
440,0.00488281,0.00541382,
442,-0.012207,0.00545044,
444,-0.00305176,0.00541382,
446,0.000610352,0.00537109,
448,-0.00610352,0.00535278,
450,-0.00183105,0.00534668,
452,-0.00549316,0.00534058,
454,-0.00366211,0.00533447,
456,0.0012207,0.00531006,
458,-0.00610352,0.00531616,
460,-0.00183105,0.00524902,
462,0.0012207,0.00524902,
464,0.000610352,0.0052063,
466,-0.00244141,0.00516357,
468,-0.00610352,0.00512695,
470,-0.000610352,0.0050354,
472,-0.00305176,0.00494385,
474,0.00183105,0.00490723,
476,-0.010376,0.00494995,
478,-0.00854492,0.00500488,
480,0,0.00496826,
482,-0.00976563,0.00492554,
484,-0.00183105,0.00493774,
486,-0.00244141,0.00494385,
488,-0.00732422,0.00499268,
490,-0.00610352,0.00501099,
492,0.000610352,0.00491333,
494,-0.00671387,0.00492554,
496,-0.00427246,0.00493164,
498,-0.00610352,0.00490723,
500,-0.00244141,0.00490723,
502,-0.00732422,0.00496216,
504,-0.00671387,0.00496826,
506,-0.00427246,0.00490112,
508,-0.00610352,0.00487671,
510,-0.000610352,0.0048584,
512,-0.00183105,0.00482178,
514,-0.00183105,0.00476074,
516,-0.00427246,0.00469971,
518,-0.00488281,0.00469971,
520,0,0.00459595,
522,-0.00915527,0.00460205,
524,0.00366211,0.00460815,
526,-0.00732422,0.00467529,
528,-0.00610352,0.00471802,
530,0.0012207,0.00467529,
532,-0.0128174,0.00469971,
534,-0.00305176,0.00471191,
536,-0.000610352,0.00466919,
538,-0.00915527,0.0046814,
540,-0.0012207,0.00466919,
542,-0.00671387,0.00466309,
544,-0.00427246,0.00460205,
546,-0.00610352,0.00460815,
548,-0.00549316,0.00454102,
550,0.000610352,0.00452881,
552,0.00244141,0.00447388,
554,-0.00366211,0.00443115,
556,-0.00976563,0.00446777,
558,-0.00854492,0.00447998,
560,-0.0012207,0.00444946,
562,-0.00305176,0.00441895,
564,-0.00488281,0.00445557,
566,-0.00976563,0.00450439,
568,-0.00793457,0.0045166,
570,-0.00610352,0.00457764,
572,-0.00244141,0.00454102,
574,-0.00854492,0.00460205,
576,-0.00854492,0.00464478,
578,-0.00549316,0.0046936,
580,-0.00183105,0.0046875,
582,-0.0140381,0.00473633,
584,-0.00549316,0.00473022,
586,-0.00427246,0.00476074,
588,-0.010376,0.00478516,
590,0.0012207,0.00479736,
592,-0.0134277,0.00482178,
594,-0.00610352,0.00479736,
596,-0.00549316,0.00478516,
598,-0.00549316,0.00476685,
600,-0.00488281,0.00480957,
602,-0.00854492,0.00484009,
604,-0.010376,0.00489502,
606,-0.00366211,0.00488281,
608,-0.00427246,0.00489502,
610,0,0.00482788,
612,-0.00915527,0.00491333,
614,-0.00488281,0.00494995,
616,-0.0012207,0.00496216,
618,-0.00854492,0.00495605,
620,-0.00488281,0.00498657,
622,-0.00915527,0.00494385,
624,-0.00244141,0.00493774,
626,-0.00305176,0.00493164,
628,0.0012207,0.00488892,
630,-0.00915527,0.00496216,
632,-0.00976563,0.00496216,
634,0.00244141,0.00496826,
636,-0.00488281,0.00499268,
638,-0.00610352,0.0050354,
640,-0.000610352,0.00499268,
642,-0.0170898,0.0050415,
644,-0.00671387,0.00507813,
646,-0.00732422,0.00514526,
648,-0.00610352,0.00514526,
650,-0.0012207,0.00513916,
652,-0.00488281,0.00513306,
654,-0.0134277,0.00523071,
656,-0.00610352,0.00527954,
658,-0.00366211,0.00525513,
660,-0.00732422,0.00531006,
662,-0.00732422,0.00537109,
664,-0.00305176,0.00539551,
666,-0.00976563,0.00546875,
668,-0.00793457,0.00548706,
670,-0.00610352,0.00554199,
672,-0.00610352,0.00557251,
674,-0.00305176,0.00558472,
676,-0.00671387,0.0055481,
678,-0.00671387,0.00552979,
680,-0.00244141,0.0055542,
682,-0.010376,0.0055603,
684,0,0.00554199,
686,-0.00183105,0.00553589,
688,-0.00549316,0.00551758,
690,0.00488281,0.00550537,
692,0.0012207,0.00551147,
694,-0.00793457,0.00552368,
696,-0.0109863,0.00559082,
698,-0.00427246,0.00557251,
700,-0.0012207,0.0055603,
702,-0.00671387,0.0055542,
704,-0.0164795,0.00565186,
706,-0.0128174,0.0057373,
708,-0.0109863,0.00578613,
710,-0.00305176,0.00581055,
712,-0.00976563,0.00588989,
714,0.000610352,0.00587769,
716,-0.00793457,0.00591431,
718,-0.00183105,0.00588379,
720,-0.00732422,0.00595703,
722,-0.012207,0.00598755,
724,-0.000610352,0.00595703,
726,-0.00671387,0.00595093,
728,-0.00976563,0.00598755,
730,-0.00305176,0.00600586,
732,-0.0128174,0.00600586,
734,-0.00671387,0.00604248,
736,-0.00427246,0.0060791,
738,-0.00671387,0.00605469,
740,0.0012207,0.00605469,
742,-0.0115967,0.00610352,
744,-0.00915527,0.00615234,
746,-0.00366211,0.00612793,
748,-0.00793457,0.00615234,
750,-0.00488281,0.00619507,
752,-0.00732422,0.0062439,
754,-0.00732422,0.00628052,
756,-0.00427246,0.00622559,
758,-0.00427246,0.00618286,
760,0.00671387,0.00623779,
762,-0.00244141,0.00623169,
764,-0.00427246,0.00622559,
766,-0.00610352,0.00618896,
768,-0.00366211,0.00614624,
770,-0.00366211,0.00612183,
772,-0.00793457,0.00617676,
774,-0.010376,0.00619507,
776,-0.0115967,0.00622559,
778,-0.00671387,0.00623779,
780,-0.00610352,0.00628052,
782,-0.010376,0.0062439,
784,0.00183105,0.00620728,
786,-0.00366211,0.00620117,
788,-0.00549316,0.00615234,
790,0.000610352,0.00614624,
792,-0.00183105,0.00603027,
794,-0.00854492,0.00605469,
796,-0.00244141,0.00602417,
798,-0.00549316,0.00602417,
800,-0.0012207,0.00598755,
802,-0.00610352,0.00596313,
804,-0.00549316,0.00591431,
806,-0.00244141,0.0059021,
808,-0.00671387,0.00592651,
810,0,0.00592651,
812,0.00305176,0.00586548,
814,-0.0012207,0.00582886,
816,-0.00793457,0.005896,
818,-0.000610352,0.00581665,
820,-0.00366211,0.00580444,
822,-0.00610352,0.00577393,
824,-0.00183105,0.00576782,
826,-0.00854492,0.00582275,
828,-0.00488281,0.00585938,
830,-0.00183105,0.00578613,
832,-0.00549316,0.00574341,
834,-0.00427246,0.00576172,
836,-0.00366211,0.00574951,
838,-0.00366211,0.0057251,
840,-0.00366211,0.00575562,
842,-0.00976563,0.00568237,
844,-0.00488281,0.00566406,
846,-0.010376,0.00569458,
848,-0.0140381,0.00577393,
850,-0.00305176,0.00579224,
852,-0.00854492,0.00582886,
854,-0.00671387,0.00576172,
856,-0.00732422,0.00577393,
858,-0.00854492,0.00582275,
860,-0.000610352,0.00575562,
862,-0.00610352,0.00574341,
864,0.00366211,0.00574951,
866,-0.0115967,0.00576782,
868,-0.00427246,0.0057312,
870,-0.000610352,0.00567627,
872,-0.012207,0.0057373,
874,-0.00610352,0.00576782,
876,-0.00671387,0.00576782,
878,-0.00976563,0.00579834,
880,-0.00549316,0.00582886,
882,-0.0140381,0.00586548,
884,-0.00549316,0.00592041,
886,-0.00610352,0.00596313,
888,-0.00793457,0.00598755,
890,0.0012207,0.00595093,
892,-0.00854492,0.00602417,
894,-0.00549316,0.00599976,
896,-0.00244141,0.00591431,
898,-0.00793457,0.00595093,
900,-0.00366211,0.00597534,
902,-0.00671387,0.00597534,
904,-0.00732422,0.00588379,
906,-0.00427246,0.00579834,
908,-0.00915527,0.00578003,
910,0.00183105,0.00576782,
912,-0.00671387,0.0057373,
914,-0.00793457,0.00581055,
916,-0.00427246,0.00577393,
918,-0.000610352,0.00576172,
920,-0.00549316,0.00574341,
922,-0.0140381,0.00576172,
924,-0.00366211,0.00579224,
926,-0.00854492,0.00581055,
928,-0.00732422,0.00578613,
930,-0.00244141,0.00578003,
932,-0.0152588,0.00580444,
934,-0.000610352,0.00574341,
936,-0.00732422,0.00577393,
938,-0.00427246,0.00574951,
940,-0.00244141,0.00576172,
942,-0.00732422,0.00571899,
944,0.000610352,0.00563354,
946,-0.00183105,0.00561523,
948,-0.0177002,0.00571289,
950,-0.00305176,0.00569458,
952,-0.00244141,0.00564575,
954,-0.00549316,0.00562744,
956,-0.00976563,0.00568237,
958,-0.0134277,0.00577393,
960,-0.00366211,0.00574341,
962,-0.00610352,0.00578003,
964,-0.00366211,0.00577393,
966,0.00427246,0.00575562,
968,-0.010376,0.00582275,
970,0.00427246,0.00582886,
972,-0.00610352,0.00581055,
974,-0.00427246,0.00574951,
976,-0.00305176,0.00566406,
978,-0.00488281,0.00564575,
980,-0.00305176,0.00561523,
982,-0.010376,0.00561523,
984,-0.00671387,0.00566406,
986,-0.00610352,0.00568848,
988,-0.00671387,0.00570068,
990,-0.00366211,0.0057312,
992,-0.00915527,0.00580444,
994,-0.00671387,0.00578613,
996,-0.00610352,0.00582275,
998,-0.00793457,0.00584717,
1000,-0.00549316,0.00588989,
1002,-0.00732422,0.0059021,
1004,-0.00549316,0.0059021,
1006,-0.00793457,0.00595703,
1008,-0.00793457,0.00596924,
1010,-0.00183105,0.00598755,
1012,-0.00366211,0.00599365,
1014,-0.00549316,0.00603638,
1016,-0.00671387,0.00602417,
1018,-0.00671387,0.00608521,
1020,-0.00366211,0.00608521,
1022,-0.00305176,0.00605469,
1024,-0.00610352,0.00609741,
1026,-0.00732422,0.00608521,
1028,-0.00671387,0.00610352,
1030,-0.00671387,0.00615234,
1032,-0.00976563,0.00619507,
1034,-0.00244141,0.00617676,
1036,-0.00976563,0.00623779,
1038,-0.00732422,0.00627441,
1040,0.00427246,0.00628052,
1042,-0.00549316,0.00623779,
1044,-0.012207,0.00631104,
1046,-0.00305176,0.00623779,
1048,-0.00793457,0.00617676,
1050,0.000610352,0.00615234,
1052,-0.00732422,0.00614014,
1054,-0.00732422,0.00614624,
1056,-0.00915527,0.00616455,
1058,-0.00976563,0.00617676,
1060,0.000610352,0.00617676,
1062,-0.00244141,0.00614014,
1064,-0.00488281,0.00615234,
1066,-0.00732422,0.00610962,
1068,-0.00732422,0.00614014,
1070,-0.00488281,0.00618286,
1072,-0.00732422,0.00613403,
1074,-0.00427246,0.00611572,
1076,-0.00854492,0.00613403,
1078,-0.00427246,0.0060791,
1080,-0.000610352,0.00603027,
1082,-0.012207,0.00601196,
1084,-0.000610352,0.00596313,
1086,-0.000610352,0.0059082,
1088,-0.00915527,0.00592041,
1090,0.00366211,0.00594482,
1092,-0.012207,0.00598145,
1094,-0.00488281,0.00597534,
1096,-0.00671387,0.00601807,
1098,-0.00854492,0.00602417,
1100,-0.00366211,0.00602417,
1102,-0.00732422,0.00603027,
1104,-0.00915527,0.00604858,
1106,-0.00671387,0.006073,
1108,-0.00610352,0.00604248,
1110,-0.00366211,0.00606079,
1112,-0.000610352,0.00599976,
1114,-0.00366211,0.00595703,
1116,0.00244141,0.00593872,
1118,-0.00427246,0.00597534,
1120,-0.00793457,0.00599976,
1122,-0.00915527,0.00595093,
1124,0.00244141,0.00593872,
1126,-0.0109863,0.00596313,
1128,-0.010376,0.00599365,
1130,-0.00793457,0.00604858,
1132,-0.0158691,0.00605469,
1134,-0.00671387,0.00611572,
1136,-0.00671387,0.00610962,
1138,-0.00732422,0.00614014,
1140,-0.0012207,0.00612793,
1142,-0.00915527,0.00614624,
1144,-0.00610352,0.00620117,
1146,-0.00244141,0.00620728,
1148,-0.00488281,0.0060791,
1150,0.000610352,0.00605469,
1152,-0.00671387,0.00609741,
1154,-0.00915527,0.00613403,
1156,-0.00427246,0.0060791,
1158,-0.0012207,0.00595703,
1160,-0.0012207,0.00593262,
1162,-0.0140381,0.00601196,
1164,-0.00488281,0.00602417,
1166,-0.00549316,0.00603638,
1168,-0.00610352,0.00599365,
1170,-0.010376,0.00605469,
1172,-0.00915527,0.00608521,
1174,-0.00671387,0.00610962,
1176,-0.010376,0.00618286,
1178,-0.00915527,0.00622559,
1180,-0.0012207,0.00620728,
1182,-0.010376,0.00620728,
1184,-0.0012207,0.00615234,
1186,0.00305176,0.00612183,
1188,-0.00183105,0.006073,
1190,-0.00244141,0.00606079,
1192,-0.00915527,0.00606079,
1194,0,0.00599365,
1196,-0.00610352,0.00599365,
1198,-0.00854492,0.00599976,
1200,-0.00244141,0.00596924,
1202,-0.0152588,0.00604858,
1204,-0.010376,0.00609741,
1206,-0.00610352,0.0060791,
1208,-0.00671387,0.00606689,
1210,-0.00305176,0.0060791,
1212,-0.00305176,0.006073,
1214,-0.00427246,0.00606079,
1216,-0.00854492,0.0060791,
1218,-0.00305176,0.00604248,
1220,-0.00610352,0.00606689,
1222,-0.00732422,0.00610962,
1224,-0.00183105,0.00606689,
1226,-0.00366211,0.00603027,
1228,-0.00610352,0.00602417,
1230,-0.00976563,0.00605469,
1232,-0.012207,0.0060791,
1234,0.000610352,0.00606079,
1236,-0.00610352,0.00602417,
1238,-0.00549316,0.00600586,
1240,-0.00671387,0.00603027,
1242,-0.010376,0.0060791,
1244,-0.00671387,0.00602417,
1246,-0.00671387,0.00606079,
1248,-0.00488281,0.00603027,
1250,0.00244141,0.00604858,
1252,-0.000610352,0.00598145,
1254,-0.00671387,0.00597534,
1256,-0.0115967,0.00599976,
1258,-0.00549316,0.00595703,
1260,-0.00244141,0.00597534,
1262,-0.00610352,0.00601196,
1264,-0.00549316,0.00601807,
1266,-0.00976563,0.00604248,
1268,-0.00488281,0.00601807,
1270,-0.0115967,0.00608521,
1272,-0.00915527,0.00610352,
1274,0.000610352,0.00606689,
1276,-0.00976563,0.0060791,
1278,-0.00671387,0.00610352,
1280,-0.00427246,0.00614014,
1282,-0.0109863,0.00612793,
1284,-0.00244141,0.00614624,
1286,-0.00305176,0.00617065,
1288,-0.00610352,0.00614014,
1290,0.00366211,0.00614014,
1292,-0.00366211,0.00605469,
1294,-0.00366211,0.00604248,
1296,-0.00488281,0.00602417,
1298,-0.000610352,0.00594482,
1300,0.0012207,0.00592041,
1302,-0.0109863,0.00595703,
1304,-0.000610352,0.00587158,
1306,-0.00732422,0.00587769,
1308,-0.0109863,0.00592651,
1310,-0.00366211,0.00592651,
1312,-0.00305176,0.00595093,
1314,-0.00610352,0.00597534,
1316,-0.00976563,0.00604858,
1318,-0.00671387,0.006073,
1320,-0.00366211,0.00603027,
1322,-0.00244141,0.00596313,
1324,0.000610352,0.00594482,
1326,0,0.00583496,
1328,-0.0146484,0.00587769,
1330,-0.00305176,0.00582886,
1332,-0.00732422,0.00574341,
1334,0.000610352,0.00568237,
1336,-0.00732422,0.00568848,
1338,-0.00854492,0.00570068,
1340,-0.00732422,0.00576172,
1342,-0.00732422,0.00574341,
1344,-0.00671387,0.00574951,
1346,-0.0012207,0.0057373,
1348,-0.0128174,0.00581665,
1350,-0.00427246,0.00585327,
1352,-0.00610352,0.00584717,
1354,-0.00427246,0.00579834,
1356,-0.00793457,0.00583496,
1358,-0.0134277,0.00595703,
1360,-0.00671387,0.00601196,
1362,0.00305176,0.0059021,
1364,-0.00915527,0.00594482,
1366,-0.00732422,0.00596313,
1368,-0.00854492,0.00598755,
1370,-0.00610352,0.00594482,
1372,-0.00427246,0.005896,
1374,-0.00366211,0.00586548,
1376,-0.00732422,0.00583496,
1378,-0.00305176,0.00577393,
1380,0.000610352,0.00576782,
1382,-0.00244141,0.00568848,
1384,0,0.00567627,
1386,-0.010376,0.00574951,
1388,-0.00366211,0.00576782,
1390,0.00366211,0.00578003,
1392,-0.00976563,0.00578613,
1394,-0.00854492,0.00587158,
1396,-0.00732422,0.00588379,
1398,-0.0115967,0.00591431,
1400,-0.00305176,0.00592041,
1402,-0.00427246,0.00581055,
1404,-0.00305176,0.0057373,
1406,-0.00305176,0.00570679,
1408,-0.00793457,0.00571899,
1410,-0.00427246,0.0057312,
1412,0.0012207,0.00571289,
1414,-0.00366211,0.00570679,
1416,-0.00915527,0.00571289,
1418,-0.0012207,0.00569458,
1420,-0.012207,0.00575562,
1422,-0.00915527,0.00577393,
1424,-0.0012207,0.00576782,
1426,-0.00183105,0.00574951,
1428,0.000610352,0.00569458,
1430,-0.0115967,0.00571289,
1432,-0.0109863,0.00570068,
1434,-0.000610352,0.00570068,
1436,-0.00305176,0.00567017,
1438,-0.00488281,0.00566406,
1440,-0.00183105,0.00561523,
1442,-0.0134277,0.00564575,
1444,-0.00793457,0.00565796,
1446,-0.00610352,0.00565186,
1448,-0.00793457,0.00568237,
1450,-0.00244141,0.00568237,
1452,-0.00183105,0.00569458,
1454,-0.00854492,0.00571289,
1456,0.00671387,0.00566406,
1458,-0.0115967,0.0057251,
1460,-0.00366211,0.0057373,
1462,-0.00366211,0.00571289,
1464,-0.0012207,0.00567017,
1466,-0.00183105,0.00559082,
1468,-0.00732422,0.00561523,
1470,-0.00915527,0.00559082,
1472,-0.00488281,0.0055481,
1474,-0.00366211,0.00557861,
1476,-0.00610352,0.00554199,
1478,-0.00610352,0.00553589,
1480,-0.00183105,0.00551147,
1482,-0.00976563,0.00549927,
1484,0.000610352,0.00548096,
1486,-0.00183105,0.00546875,
1488,-0.00488281,0.00545654,
1490,0.00488281,0.00546875,
1492,-0.00793457,0.00551147,
1494,0.000610352,0.00548096,
1496,0,0.00543213,
1498,-0.00732422,0.00549927,
1500,-0.00183105,0.00550537,
1502,-0.00610352,0.00545654,
1504,-0.00488281,0.00549927,
1506,0,0.00542603,
1508,-0.010376,0.00541992,
1510,-0.00244141,0.00540771,
1512,-0.00183105,0.00539551,
1514,0.00305176,0.00536499,
1516,-0.00610352,0.00532837,
1518,-0.00366211,0.00529785,
1520,0.00488281,0.00531006,
1522,-0.00732422,0.00535889,
1524,-0.00549316,0.00540771,
1526,-0.00488281,0.00545654,
1528,-0.00671387,0.0053772,
1530,-0.00427246,0.0053894,
1532,-0.012207,0.00543823,
1534,-0.00366211,0.00546875,
1536,-0.00549316,0.00545044,
1538,-0.00610352,0.00542603,
1540,0.000610352,0.00535889,
1542,-0.00610352,0.00534668,
1544,-0.00305176,0.00531006,
1546,-0.0012207,0.00531006,
1548,-0.00793457,0.00526123,
1550,0.00793457,0.00529785,
1552,-0.00915527,0.00532837,
1554,-0.00915527,0.0053772,
1556,-0.00183105,0.00531616,
1558,-0.00244141,0.0052063,
1560,-0.00366211,0.00517578,
1562,-0.0134277,0.00527954,
1564,-0.00671387,0.00525513,
1566,-0.00915527,0.00527344,
1568,-0.00488281,0.00523682,
1570,-0.00854492,0.00526123,
1572,-0.0128174,0.00534668,
1574,-0.000610352,0.00531616,
1576,-0.00976563,0.00534058,
1578,-0.00488281,0.00535889,
1580,0.00183105,0.00537109,
1582,-0.0128174,0.00547485,
1584,-0.00183105,0.00549316,
1586,-0.00244141,0.00541382,
1588,-0.00244141,0.00540161,
1590,0.00976563,0.00546265,
1592,-0.010376,0.00546875,
1594,-0.00976563,0.00548096,
1596,-0.0012207,0.00541992,
1598,-0.00366211,0.00534058,
1600,0.00244141,0.00533447,
1602,-0.00793457,0.00537109,
1604,-0.00915527,0.00543213,
1606,-0.0109863,0.00551147,
1608,0,0.00543213,
1610,-0.00549316,0.00544434,
1612,-0.00549316,0.00548706,
1614,-0.00244141,0.00547485,
1616,-0.00610352,0.00544434,
1618,-0.00976563,0.00552979,
1620,-0.00549316,0.00546265,
1622,-0.00549316,0.00542603,
1624,-0.00244141,0.00543823,
1626,-0.00488281,0.00546875,
1628,-0.0115967,0.00557861,
1630,0,0.00546265,
1632,-0.0109863,0.00546265,
1634,-0.0115967,0.00557251,
1636,-0.0012207,0.0055542,
1638,-0.00915527,0.00559692,
1640,-0.00305176,0.00560913,
1642,-0.0152588,0.00562744,
1644,-0.012207,0.00567017,
1646,-0.00732422,0.00568237,
1648,-0.0109863,0.00571289,
1650,-0.00305176,0.00571899,
1652,-0.00244141,0.0057251,
1654,0.00244141,0.00566406,
1656,-0.0158691,0.00575562,
1658,-0.00610352,0.00570068,
1660,0.00183105,0.00568237,
1662,-0.00305176,0.00567627,
1664,-0.00427246,0.00570679,
1666,-0.00671387,0.00575562,
1668,-0.00915527,0.00577393,
1670,-0.00671387,0.00574951,
1672,-0.00732422,0.00577393,
1674,-0.00427246,0.00578003,
1676,-0.00732422,0.00579224,
1678,-0.00305176,0.00576172,
1680,-0.00488281,0.00579224,
1682,-0.00793457,0.00577393,
1684,0.00854492,0.00585327,
1686,-0.00366211,0.00587158,
1688,-0.00793457,0.0059021,
1690,0.0012207,0.00586548,
1692,-0.00305176,0.00581665,
1694,-0.00854492,0.005896,
1696,-0.010376,0.00599976,
1698,-0.00854492,0.00601196,
1700,-0.00427246,0.00603638,
1702,-0.0134277,0.00610962,
1704,-0.00976563,0.00615845,
1706,-0.00671387,0.00622559,
1708,-0.00793457,0.00620117,
1710,-0.00549316,0.00623169,
1712,-0.00610352,0.00627441,
1714,-0.00549316,0.00629883,
1716,-0.000610352,0.0062439,
1718,-0.0115967,0.00632324,
1720,-0.00732422,0.00634766,
1722,-0.00183105,0.00629272,
1724,0.00427246,0.00628052,
1726,-0.010376,0.00633545,
1728,-0.0115967,0.00638428,
1730,-0.000610352,0.00634766,
1732,-0.00854492,0.00631104,
1734,-0.00610352,0.00633545,
1736,-0.00854492,0.00636597,
1738,-0.00671387,0.00637207,
1740,-0.00244141,0.00639038,
1742,-0.00854492,0.00641479,
1744,-0.010376,0.00648804,
1746,-0.00427246,0.00651855,
1748,-0.00305176,0.00646973,
1750,0.0012207,0.00640259,
1752,-0.00488281,0.00635986,
1754,-0.00488281,0.00631714,
1756,-0.00549316,0.00635376,
1758,-0.00427246,0.00637207,
1760,0.000610352,0.00634155,
1762,0,0.00620728,
1764,-0.00976563,0.00623779,
1766,-0.00793457,0.00622559,
1768,-0.0012207,0.00618896,
1770,-0.00915527,0.00619507,
1772,-0.00976563,0.00616455,
1774,-0.00305176,0.00618896,
1776,-0.0109863,0.00620117,
1778,-0.00732422,0.00622559,
1780,-0.00244141,0.00623169,
1782,-0.00976563,0.00620117,
1784,0.0012207,0.00619507,
1786,-0.00549316,0.00622559,
1788,-0.00549316,0.0062561,
1790,0.00488281,0.00620728,
1792,-0.0012207,0.00611572,
1794,0.00366211,0.00605469,
1796,-0.00854492,0.00612793,
1798,-0.00671387,0.00615845,
1800,0,0.00613403,
1802,-0.0012207,0.00606689,
1804,-0.00732422,0.00604858,
1806,-0.00366211,0.00597534,
1808,-0.00854492,0.00606079,
1810,-0.00854492,0.00609131,
1812,-0.0012207,0.00604858,
1814,0.0012207,0.00603638,
1816,-0.00427246,0.00601807,
1818,-0.00488281,0.00596924,
1820,-0.00305176,0.00594482,
1822,-0.0012207,0.0059021,
1824,0.00671387,0.00594482,
1826,-0.00854492,0.00598145,
1828,-0.00915527,0.00595703,
1830,0,0.00595703,
1832,-0.00732422,0.00592041,
1834,-0.00366211,0.00584106,
1836,-0.00732422,0.0059021,
1838,-0.00793457,0.00588989,
1840,-0.00183105,0.00587769,
1842,-0.010376,0.00582886,
1844,-0.00488281,0.00575562,
1846,-0.000610352,0.00568848,
1848,0,0.00557861,
1850,0.00488281,0.00559692,
1852,-0.0128174,0.00570068,
1854,-0.00427246,0.00571899,
1856,-0.000610352,0.00556641,
1858,-0.00305176,0.00553589,
1860,-0.00732422,0.00559082,
1862,-0.00427246,0.00560303,
1864,-0.00244141,0.00558472,
1866,-0.0109863,0.00562744,
1868,-0.00793457,0.00561523,
1870,0.00244141,0.00557251,
1872,-0.00854492,0.00558472,
1874,-0.00671387,0.00560913,
1876,-0.00793457,0.00561523,
1878,0.00305176,0.00561523,
1880,-0.00732422,0.00563965,
1882,-0.00610352,0.00562134,
1884,-0.0012207,0.0055481,
1886,-0.00915527,0.00560303,
1888,-0.00183105,0.00554199,
1890,0,0.00552979,
1892,-0.0109863,0.00560913,
1894,-0.00549316,0.00557861,
1896,-0.00549316,0.00552979,
1898,-0.000610352,0.00545044,
1900,-0.00671387,0.00547485,
1902,-0.000610352,0.00534668,
1904,-0.00366211,0.00528564,
1906,-0.00244141,0.00524292,
1908,-0.00488281,0.0052124,
1910,-0.00427246,0.0052002,
1912,-0.00305176,0.00516968,
1914,-0.00488281,0.00516357,
1916,-0.00183105,0.00517578,
1918,-0.00366211,0.00509644,
1920,-0.00732422,0.00509644,
1922,-0.00854492,0.00516357,
1924,0.000610352,0.00512695,
1926,-0.00305176,0.00505371,
1928,-0.000610352,0.00494385,
1930,-0.00183105,0.00495605,
1932,-0.020752,0.00507813,
1934,0.00244141,0.0050415,
1936,-0.000610352,0.00496216,
1938,-0.00366211,0.00493164,
1940,-0.00305176,0.00493774,
1942,-0.0134277,0.00498657,
1944,-0.00610352,0.00494385,
1946,-0.00488281,0.00494995,
1948,-0.00915527,0.00501099,
1950,0.00366211,0.0050354,
1952,-0.00427246,0.0050293,
1954,-0.012207,0.00510254,
1956,-0.00427246,0.00509033,
1958,0,0.00504761,
1960,-0.00305176,0.00507202,
1962,-0.00854492,0.00515747,
1964,0.000610352,0.00506592,
1966,0.0012207,0.00499878,
1968,-0.0128174,0.00511475,
1970,-0.00610352,0.00508423,
1972,-0.00488281,0.0050354,
1974,-0.00244141,0.0050293,
1976,-0.00610352,0.00498047,
1978,-0.00671387,0.00497437,
1980,-0.00488281,0.00499878,
1982,-0.00976563,0.00499878,
1984,0.00488281,0.0050354,
1986,-0.00366211,0.00501709,
1988,-0.00305176,0.00499268,
1990,0,0.00494385,
1992,-0.000610352,0.00493774,
1994,-0.000610352,0.00490723,
1996,0.00244141,0.00484619,
1998,-0.010376,0.00488281,
2000,-0.00366211,0.00491943,
2002,-0.00366211,0.00494385,
2004,-0.00610352,0.00493164,
2006,-0.00671387,0.00496216,
2008,-0.00366211,0.00491333,
2010,-0.00549316,0.00488281,
2012,-0.00183105,0.00488892,
2014,-0.00427246,0.00491943,
2016,-0.00549316,0.00493164,
2018,0.000610352,0.00488892,
2020,-0.00366211,0.00489502,
2022,-0.00793457,0.00496216,
2024,-0.00610352,0.00495605,
2026,-0.00854492,0.00495605,
2028,-0.00732422,0.00493774,
2030,-0.00610352,0.00499878,
2032,-0.00854492,0.00501099,
2034,0.00854492,0.00505981,
2036,-0.0164795,0.00515137,
2038,-0.0012207,0.00508423,
2040,0.00183105,0.00508423,
2042,0,0.00498047,
2044,-0.00854492,0.00501709,
2046,-0.00305176,0.0050415,
2048,-0.010376,0.00514526,
2050,-0.00183105,0.00511475,
2052,-0.00610352,0.00504761,
2054,-0.00488281,0.00505371,
2056,-0.00366211,0.00508423,
2058,-0.00854492,0.00513916,
2060,-0.0012207,0.00507813,
2062,-0.0012207,0.00504761,
2064,-0.00305176,0.00505371,
2066,-0.00305176,0.00497437,
2068,-0.00610352,0.00495605,
2070,-0.000610352,0.00493774,
2072,-0.00305176,0.00488281,
2074,0.010376,0.00491943,
2076,-0.00854492,0.00492554,
2078,-0.00793457,0.00497437,
2080,0.00366211,0.00493774,
2082,-0.00549316,0.00493164,
2084,-0.00183105,0.00493774,
2086,-0.00793457,0.00492554,
2088,-0.00793457,0.00498657,
2090,-0.000610352,0.00499268,
2092,-0.00549316,0.00493774,
2094,-0.00427246,0.00492554,
2096,-0.00610352,0.00493164,
2098,-0.0012207,0.00493774,
2100,0.00305176,0.00490112,
2102,-0.00732422,0.00496826,
2104,-0.000610352,0.00493774,
2106,-0.00549316,0.00496826,
2108,-0.00671387,0.00498657,
2110,-0.00244141,0.00496826,
2112,-0.00305176,0.00496826,
2114,0,0.00491943,
2116,-0.00183105,0.00491943,
2118,-0.00549316,0.00493774,
2120,-0.00305176,0.00489502,
2122,-0.00244141,0.00483398,
2124,-0.00244141,0.00485229,
2126,-0.00366211,0.0048584,
2128,-0.00366211,0.00488892,
2130,-0.00854492,0.00495605,
2132,-0.00793457,0.00482788,
2134,0,0.00480347,
2136,0.0012207,0.00480957,
2138,0,0.00477295,
2140,-0.00854492,0.00482788,
2142,-0.00305176,0.00472412,
2144,-0.00244141,0.0046875,
2146,-0.00183105,0.00465698,
2148,-0.00549316,0.00462036,
2150,-0.00305176,0.00461426,
2152,-0.0152588,0.00472412,
2154,-0.00732422,0.00467529,
2156,-0.00427246,0.00467529,
2158,-0.00610352,0.00473633,
2160,-0.00488281,0.00475464,
2162,-0.00366211,0.00470581,
2164,-0.00305176,0.00473022,
2166,-0.00183105,0.00473633,
2168,-0.00976563,0.00470581,
2170,-0.0012207,0.00465698,
2172,-0.00488281,0.00465698,
2174,0.00305176,0.00466309,
2176,-0.00549316,0.00465698,
2178,-0.00549316,0.00464478,
2180,-0.00305176,0.00462646,
2182,-0.0115967,0.00464478,
2184,0.00427246,0.00463867,
2186,-0.0109863,0.00471191,
2188,-0.00671387,0.00474854,
2190,-0.00366211,0.00478516,
2192,-0.0128174,0.00490723,
2194,-0.0115967,0.00501709,
2196,-0.00610352,0.00505371,
2198,-0.00976563,0.00504761,
2200,-0.00244141,0.0050354,
2202,-0.00915527,0.00509033,
2204,-0.00427246,0.00507202,
2206,-0.00244141,0.0050293,
2208,-0.00671387,0.00505981,
2210,-0.00305176,0.0050354,
2212,0.00793457,0.00509644,
2214,-0.00610352,0.00511475,
2216,-0.00671387,0.00512695,
2218,-0.00854492,0.0052063,
2220,-0.00244141,0.00519409,
2222,0,0.00511475,
2224,-0.00488281,0.00510254,
2226,-0.0134277,0.00515137,
2228,-0.00854492,0.00516357,
2230,-0.00671387,0.00516968,
2232,-0.0134277,0.00521851,
2234,-0.00366211,0.00516968,
2236,-0.0012207,0.00501709,
2238,-0.0164795,0.00516968,
2240,-0.000610352,0.00515747,
2242,-0.00915527,0.00524902,
2244,-0.00976563,0.00526123,
2246,-0.00732422,0.00530396,
2248,-0.00976563,0.00529785,
2250,-0.00793457,0.00535889,
2252,-0.00244141,0.00532227,
2254,-0.00915527,0.00536499,
2256,-0.00854492,0.00541382,
2258,-0.00366211,0.00536499,
2260,-0.00244141,0.0053772,
2262,-0.00366211,0.00540161,
2264,-0.00305176,0.00540161,
2266,-0.00549316,0.00542603,
2268,-0.00305176,0.00539551,
2270,-0.00366211,0.00542603,
2272,-0.00610352,0.00545654,
2274,-0.000610352,0.00535889,
2276,0.00305176,0.00530396,
2278,0.00244141,0.00524902,
2280,-0.0115967,0.00532837,
2282,-0.00915527,0.00536499,
2284,0.00244141,0.00537109,
2286,-0.00244141,0.00531616,
2288,-0.00793457,0.00531616,
2290,-0.00305176,0.00534058,
2292,-0.022583,0.00551147,
2294,-0.00427246,0.00551147,
2296,-0.00732422,0.00552368,
2298,-0.010376,0.00561523,
2300,-0.00732422,0.00565796,
2302,-0.00793457,0.00566406,
2304,-0.00976563,0.00575562,
2306,-0.00488281,0.00574951,
2308,-0.00366211,0.00571899,
2310,-0.00366211,0.0057312,
2312,-0.00244141,0.0057251,
2314,-0.0012207,0.0057373,
2316,-0.00793457,0.00579834,
2318,-0.00488281,0.00579224,
2320,-0.00244141,0.00578613,
2322,-0.00793457,0.00584106,
2324,0.00183105,0.00583496,
2326,-0.00976563,0.005896,
2328,-0.00305176,0.00588989,
2330,-0.00183105,0.00582275,
2332,-0.0109863,0.00585327,
2334,0,0.00585327,
2336,-0.00305176,0.00587158,
2338,-0.00366211,0.0059082,
2340,0.00183105,0.00584106,
2342,-0.00732422,0.00588379,
2344,-0.00549316,0.00591431,
2346,0.00305176,0.00592651,
2348,-0.0012207,0.00588379,
2350,-0.00793457,0.00593262,
2352,-0.00976563,0.00587769,
2354,-0.0012207,0.00581665,
2356,-0.00427246,0.00581665,
2358,-0.00732422,0.00582886,
2360,-0.00488281,0.00582886,
2362,-0.00854492,0.00587769,
2364,0.00183105,0.00586548,
2366,-0.00732422,0.00592041,
2368,-0.00671387,0.00588989,
2370,-0.00244141,0.0059021,
2372,-0.00793457,0.00593262,
2374,-0.00488281,0.00595093,
2376,-0.00732422,0.00596924,
2378,-0.00671387,0.00598145,
2380,-0.00305176,0.00598145,
2382,-0.012207,0.00598755,
2384,0.00305176,0.00597534,
2386,-0.00549316,0.00592041,
2388,-0.00549316,0.0059082,
2390,-0.000610352,0.00587769,
2392,-0.00732422,0.00582275,
2394,-0.00488281,0.00575562,
2396,-0.00366211,0.0057312,
2398,-0.00549316,0.00568848,
2400,0.00610352,0.0057251,
2402,-0.00732422,0.00570679,
2404,-0.0134277,0.00579834,
2406,0.00732422,0.00584717,
2408,-0.00549316,0.00583496,
2410,0.00427246,0.00584717,
2412,-0.00732422,0.00584106,
2414,-0.00427246,0.00582275,
2416,-0.00244141,0.00578003,
2418,-0.00488281,0.00574341,
2420,-0.00732422,0.00579224,
2422,-0.00549316,0.00584717,
2424,-0.000610352,0.00580444,
2426,-0.00427246,0.00571289,
2428,0.00183105,0.00564575,
2430,0.010376,0.00568237,
2432,-0.012207,0.00567017,
2434,-0.00671387,0.00570068,
2436,0.00854492,0.00577393,
2438,-0.00183105,0.00562744,
2440,-0.00549316,0.00567627,
2442,-0.012207,0.00570679,
2444,-0.00976563,0.00570679,
2446,-0.00488281,0.00568237,
2448,-0.00488281,0.00563354,
2450,-0.00305176,0.00558472,
2452,-0.00976563,0.00565796,
2454,-0.00488281,0.00561523,
2456,-0.00610352,0.00559082,
2458,-0.00610352,0.00561523,
2460,-0.00366211,0.00562744,
2462,-0.00366211,0.00562744,
2464,-0.00366211,0.00563354,
2466,-0.00427246,0.00562134,
2468,-0.00854492,0.00567627,
2470,-0.00183105,0.00565796,
2472,-0.00671387,0.00566406,
2474,0.000610352,0.00566406,
2476,-0.00488281,0.00568237,
2478,-0.00793457,0.0057373,
2480,-0.00366211,0.00565796,
2482,-0.00549316,0.00562134,
2484,-0.00488281,0.00564575,
2486,-0.00366211,0.00565796,
2488,0.00366211,0.00561523,
2490,-0.00549316,0.00563965,
2492,0.00732422,0.00548706,
2494,-0.00366211,0.00548096,
2496,-0.000610352,0.00541382,
2498,-0.00610352,0.00537109,
2500,0.00610352,0.00535889,
2502,-0.010376,0.0053833,
2504,-0.00244141,0.00531006,
2506,-0.00732422,0.00533447,
2508,-0.00671387,0.00536499,
2510,-0.00671387,0.00539551,
2512,-0.010376,0.00547485,
2514,-0.0012207,0.00547485,
2516,-0.00610352,0.00545654,
2518,-0.00488281,0.00545654,
2520,-0.00549316,0.00548706,
2522,-0.00854492,0.00549316,
2524,-0.00488281,0.00552368,
2526,-0.00305176,0.00545654,
2528,-0.00427246,0.00546875,
2530,-0.00488281,0.00549927,
2532,-0.00976563,0.00548706,
2534,-0.0012207,0.00549927,
2536,-0.00244141,0.00549316,
2538,-0.00549316,0.00551147,
2540,0.000610352,0.00549927,
2542,0.00183105,0.00544434,
2544,-0.012207,0.00551147,
2546,-0.0012207,0.00549316,
2548,0.00366211,0.00551758,
2550,0.00427246,0.00548096,
2552,-0.00183105,0.00540161,
2554,-0.0158691,0.0055481,
2556,-0.00549316,0.0055603,
2558,-0.00488281,0.00553589,
2560,-0.00549316,0.00554199,
2562,-0.0115967,0.00557251,
2564,-0.00671387,0.00562134,
2566,-0.00671387,0.00561523,
2568,-0.0152588,0.00570068,
2570,-0.00854492,0.00576172,
2572,-0.00549316,0.0057373,
2574,-0.00366211,0.0057251,
2576,-0.00915527,0.00574341,
2578,-0.010376,0.00578003,
2580,-0.00305176,0.00578003,
2582,-0.0152588,0.00581055,
2584,-0.00244141,0.00580444,
2586,-0.00305176,0.00578003,
2588,-0.00976563,0.00582275,
2590,0.00183105,0.00583496,
2592,-0.00915527,0.00585327,
2594,-0.00427246,0.00584717,
2596,-0.00793457,0.00588989,
2598,-0.00427246,0.00587769,
2600,-0.0012207,0.00582886,
2602,-0.010376,0.00585938,
2604,-0.00793457,0.00580444,
2606,-0.00732422,0.00580444,
2608,-0.00854492,0.00583496,
2610,-0.00488281,0.00584106,
2612,-0.00610352,0.00582886,
2614,-0.0115967,0.0059021,
2616,-0.00793457,0.00595703,
2618,-0.00854492,0.00599365,
2620,-0.00427246,0.00596313,
2622,-0.010376,0.00601196,
2624,-0.0012207,0.00601807,
2626,-0.00305176,0.00600586,
2628,-0.00244141,0.00601196,
2630,-0.0109863,0.00601807,
2632,-0.0146484,0.00604248,
2634,-0.000610352,0.00598145,
2636,-0.00427246,0.00593872,
2638,-0.00854492,0.00600586,
2640,-0.00488281,0.00599976,
2642,-0.00976563,0.00597534,
2644,-0.00915527,0.00596924,
2646,0,0.00592041,
2648,-0.00732422,0.00594482,
2650,-0.00549316,0.00596924,
2652,-0.0012207,0.00588379,
2654,-0.00610352,0.005896,
2656,-0.00488281,0.00588379,
2658,-0.00427246,0.00586548,
2660,-0.00610352,0.00588989,
2662,-0.00488281,0.0059021,
2664,-0.00366211,0.0059021,
2666,-0.00366211,0.005896,
2668,0,0.00581055,
2670,-0.00854492,0.00587769,
2672,-0.00976563,0.0059082,
2674,-0.00610352,0.00596313,
2676,-0.00854492,0.00599976,
2678,-0.00915527,0.00601196,
2680,-0.00610352,0.00603638,
2682,-0.0146484,0.00612793,
2684,-0.00854492,0.00616455,
2686,-0.00732422,0.00620117,
2688,-0.00854492,0.00625,
2690,-0.0012207,0.00620728,
2692,-0.00854492,0.00621948,
2694,-0.00915527,0.00627441,
2696,-0.000610352,0.00627441,
2698,-0.00976563,0.00631104,
2700,0,0.00625,
2702,-0.00915527,0.00623779,
2704,-0.00732422,0.00628662,
2706,-0.00488281,0.00626221,
2708,-0.00732422,0.00626831,
2710,0.00305176,0.00623169,
2712,-0.00244141,0.00615234,
2714,-0.00671387,0.00620728,
2716,-0.00854492,0.00623169,
2718,-0.00183105,0.00620117,
2720,-0.00244141,0.00617065,
2722,-0.0164795,0.00625,
2724,-0.00488281,0.00625,
2726,-0.00976563,0.00631714,
2728,-0.00610352,0.00633545,
2730,-0.00488281,0.00633545,
2732,-0.0152588,0.00639038,
2734,-0.00244141,0.00640259,
2736,-0.0012207,0.00639038,
2738,-0.00671387,0.00640259,
2740,0.00427246,0.00643921,
2742,-0.00732422,0.00649414,
2744,-0.010376,0.00647583,
2746,0,0.00646362,
2748,-0.00488281,0.00647583,
2750,-0.00366211,0.00646973,
2752,-0.00610352,0.00651245,
2754,-0.010376,0.00645752,
2756,-0.0140381,0.00654297,
2758,-0.00549316,0.00654907,
2760,-0.00427246,0.00653687,
2762,-0.00549316,0.00647583,
2764,-0.00854492,0.00649414,
2766,0,0.006427,
2768,0,0.00627441,
2770,-0.00732422,0.00626221,
2772,-0.0140381,0.00634766,
2774,-0.000610352,0.00631714,
2776,-0.00976563,0.00632324,
2778,-0.00976563,0.00631714,
2780,-0.00793457,0.00636597,
2782,-0.0152588,0.00636597,
2784,-0.00549316,0.00639648,
2786,-0.00549316,0.0064209,
2788,-0.00549316,0.00637817,
2790,0.0012207,0.00637207,
2792,-0.010376,0.00638428,
2794,-0.00427246,0.00638428,
2796,-0.00488281,0.00635376,
2798,-0.00610352,0.00637207,
2800,-0.00183105,0.00637817,
2802,-0.00610352,0.00633545,
2804,-0.00793457,0.00633545,
2806,-0.00793457,0.00634155,
2808,-0.00793457,0.00633545,
2810,0.0012207,0.00629883,
2812,-0.000610352,0.0062439,
2814,0.00366211,0.00616455,
2816,-0.00732422,0.00615845,
2818,-0.0012207,0.00608521,
2820,-0.00854492,0.00612793,
2822,0.0012207,0.00603638,
2824,0.00305176,0.00605469,
2826,-0.0152588,0.00617676,
2828,-0.0109863,0.00626221,
2830,-0.00549316,0.00620728,
2832,-0.00793457,0.00614014,
2834,-0.00549316,0.00618896,
2836,-0.0012207,0.00615845,
2838,-0.00732422,0.00614624,
2840,0.00244141,0.00612183,
2842,-0.00549316,0.0060791,
2844,0.00366211,0.00602417,
2846,0.00183105,0.00604248,
2848,-0.00244141,0.00599365,
2850,0,0.00593872,
2852,-0.00183105,0.00594482,
2854,0,0.00588379,
2856,-0.00793457,0.00591431,
2858,-0.00793457,0.00595093,
2860,-0.00793457,0.00596924,
2862,-0.000610352,0.00592651,
2864,-0.00793457,0.00596924,
2866,-0.00915527,0.00602417,
2868,-0.00427246,0.00606689,
2870,0.000610352,0.00598755,
2872,-0.00549316,0.00594482,
2874,-0.00549316,0.00593872,
2876,-0.00488281,0.0059021,
2878,-0.00427246,0.00585327,
2880,0.0012207,0.00580444,
2882,-0.0146484,0.00580444,
2884,-0.00244141,0.00574341,
2886,-0.00183105,0.00568848,
2888,-0.00183105,0.00562134,
2890,-0.0012207,0.00562134,
2892,-0.00732422,0.00560913,
2894,-0.00366211,0.0055542,
2896,-0.00244141,0.00557251,
2898,-0.00549316,0.00552979,
2900,0.00244141,0.0055542,
2902,-0.00427246,0.00550537,
2904,0.00610352,0.00549316,
2906,-0.0134277,0.00557861,
2908,-0.00183105,0.00552368,
2910,0.000610352,0.00549927,
2912,-0.000610352,0.00548096,
2914,-0.00427246,0.00545654,
2916,-0.0012207,0.0053833,
2918,-0.00610352,0.00542603,
2920,0.00610352,0.00546265,
2922,-0.00244141,0.00532227,
2924,0.00366211,0.00531006,
2926,-0.00915527,0.00530396,
2928,0.00305176,0.00527344,
2930,-0.000610352,0.00523071,
2932,-0.0140381,0.00521851,
2934,-0.00488281,0.00524292,
2936,-0.00976563,0.00532837,
2938,-0.00610352,0.00532227,
2940,-0.00183105,0.00529785,
2942,-0.00732422,0.00529785,
2944,-0.00366211,0.00523071,
2946,0,0.00523071,
2948,-0.010376,0.00528564,
2950,0.00793457,0.00532837,
2952,-0.00915527,0.00535889,
2954,0.000610352,0.00526123,
2956,-0.00854492,0.0052063,
2958,-0.00488281,0.0052002,
2960,0.0012207,0.00516968,
2962,-0.00244141,0.00513916,
2964,-0.00915527,0.00514526,
2966,0.00305176,0.00517578,
2968,-0.00366211,0.0052124,
2970,-0.00244141,0.00516357,
2972,-0.00427246,0.00506592,
2974,0.0134277,0.00519409,
2976,0.00244141,0.00512085,
2978,-0.00732422,0.00509644,
2980,-0.00915527,0.00510864,
2982,-0.00732422,0.0050293,
2984,-0.00183105,0.00499268,
2986,-0.00732422,0.00501099,
2988,-0.0146484,0.00510254,
2990,-0.010376,0.00519409,
2992,-0.0164795,0.00525513,
2994,-0.00915527,0.00530396,
2996,-0.00366211,0.00529175,
2998,-0.00732422,0.00530396,
3000,-0.00183105,0.00530396,
3002,-0.00366211,0.00527954,
3004,-0.00671387,0.00526733,
3006,-0.000610352,0.00519409,
3008,-0.0012207,0.00512695,
3010,0.00366211,0.00515137,
3012,-0.00610352,0.0052063,
3014,0,0.00516968,
3016,-0.0012207,0.00510864,
3018,0.00488281,0.00514526,
3020,-0.00976563,0.00515747,
3022,-0.00488281,0.00519409,
3024,-0.00549316,0.00521851,
3026,-0.00854492,0.00515137,
3028,-0.00183105,0.00505981,
3030,-0.00915527,0.00509644,
3032,0.00244141,0.0050415,
3034,-0.010376,0.00509033,
3036,0.00793457,0.00515747,
3038,-0.020752,0.00529175,
3040,0.0115967,0.0053833,
3042,-0.0012207,0.00534058,
3044,-0.00793457,0.0053833,
3046,-0.00976563,0.00546265,
3048,0.000610352,0.00544434,
3050,0.00610352,0.00550537,
3052,-0.0134277,0.00562134,
3054,-0.010376,0.0057251,
3056,0.00366211,0.00568237,
3058,-0.00488281,0.00565186,
3060,-0.00244141,0.00559692,
3062,-0.00488281,0.00563965,
3064,0.00610352,0.00562134,
3066,-0.00610352,0.00559082,
3068,-0.0128174,0.00567627,
3070,-0.00915527,0.00576172,
3072,-0.00183105,0.0057251,
3074,0.000610352,0.00567627,
3076,-0.00732422,0.00570068,
3078,-0.00671387,0.0057251,
3080,-0.0012207,0.0057251,
3082,0.00488281,0.00562744,
3084,-0.000610352,0.00560913,
3086,-0.010376,0.00569458,
3088,-0.0012207,0.00568848,
3090,0.012207,0.00579834,
3092,-0.00671387,0.00579224,
3094,-0.00610352,0.00581665,
3096,-0.0158691,0.00595093,
3098,-0.00793457,0.00597534,
3100,0.0012207,0.00596313,
3102,-0.00854492,0.00600586,
3104,-0.00915527,0.00603638,
3106,-0.0115967,0.00601807,
3108,-0.00732422,0.006073,
3110,-0.00305176,0.00609741,
3112,-0.00427246,0.00613403,
3114,-0.00244141,0.00611572,
3116,-0.00427246,0.00614624,
3118,0.0012207,0.00609741,
3120,-0.00305176,0.00606689,
3122,-0.00610352,0.00610352,
3124,0.00488281,0.00611572,
3126,-0.00488281,0.006073,
3128,-0.00549316,0.00609741,
3130,0.00244141,0.00611572,
3132,-0.0134277,0.00610962,
3134,0.00305176,0.00609131,
3136,-0.00366211,0.00603027,
3138,-0.0109863,0.0060791,
3140,0.0109863,0.00617065,
3142,-0.00549316,0.00615234,
3144,-0.0115967,0.00623169,
3146,-0.00366211,0.00626831,
3148,-0.00610352,0.00622559,
3150,0.00366211,0.00618286,
3152,-0.010376,0.00619507,
3154,-0.00549316,0.0062439,
3156,-0.00610352,0.00621948,
3158,-0.00183105,0.00618896,
3160,-0.00244141,0.00620117,
3162,0.0012207,0.00618896,
3164,-0.000610352,0.00610352,
3166,-0.00549316,0.00612793,
3168,-0.00366211,0.00612793,
3170,-0.00549316,0.00615845,
3172,-0.00244141,0.00614014,
3174,-0.000610352,0.00601196,
3176,-0.0213623,0.00620117,
3178,-0.0012207,0.00614014,
3180,-0.00183105,0.00606689,
3182,-0.0140381,0.00613403,
3184,-0.0012207,0.00612793,
3186,0.0012207,0.00606689,
3188,-0.0128174,0.00604858,
3190,-0.000610352,0.00595093,
3192,-0.00183105,0.00580444,
3194,-0.00427246,0.00575562,
3196,-0.00183105,0.0057373,
3198,-0.00244141,0.00568848,
3200,-0.00915527,0.00576172,
3202,-0.00244141,0.00574951,
3204,-0.00793457,0.00576172,
3206,-0.00488281,0.00580444,
3208,-0.00549316,0.00584717,
3210,-0.00732422,0.00588379,
3212,-0.00610352,0.00588379,
3214,-0.00305176,0.00591431,
3216,0.000610352,0.0059082,
3218,-0.0128174,0.00598755,
3220,-0.00549316,0.00594482,
3222,-0.00488281,0.00594482,
3224,-0.00183105,0.0059082,
3226,-0.0128174,0.00595093,
3228,-0.00854492,0.00601807,
3230,-0.00305176,0.00595703,
3232,-0.0134277,0.00606689,
3234,-0.00244141,0.00598755,
3236,-0.00549316,0.00596313,
3238,-0.00549316,0.00581055,
3240,0.000610352,0.00570068,
3242,-0.00488281,0.0057373,
3244,0,0.00565796,
3246,-0.00793457,0.00563965,
3248,-0.00732422,0.00570679,
3250,0.0012207,0.00565796,
3252,-0.00488281,0.00557251,
3254,-0.00793457,0.0055481,
3256,-0.010376,0.00561523,
3258,-0.010376,0.00567017,
3260,-0.00183105,0.00566406,
3262,-0.000610352,0.00562134,
3264,-0.00915527,0.00565186,
3266,-0.010376,0.00569458,
3268,-0.00671387,0.00563354,
3270,-0.000610352,0.0055481,
3272,-0.0152588,0.00568237,
3274,0.0012207,0.00568848,
3276,-0.00732422,0.00568848,
3278,0.00244141,0.00564575,
3280,-0.00915527,0.0057251,
3282,-0.0134277,0.00581055,
3284,-0.0012207,0.00581665,
3286,0.00183105,0.0057312,
3288,-0.00732422,0.00579224,
3290,-0.00976563,0.00576782,
3292,-0.00854492,0.00578613,
3294,-0.0128174,0.00585327,
3296,-0.00549316,0.00574951,
3298,-0.00854492,0.00575562,
3300,-0.00244141,0.00576782,
3302,-0.00854492,0.00576782,
3304,-0.00976563,0.00577393,
3306,-0.00671387,0.0057251,
3308,-0.00793457,0.0057312,
3310,-0.00610352,0.00576172,
3312,-0.00244141,0.00574341,
3314,-0.00488281,0.00576782,
3316,-0.00549316,0.00578003,
3318,-0.00976563,0.00586548,
3320,0.00244141,0.00585938,
3322,-0.00976563,0.005896,
3324,-0.00427246,0.00588989,
3326,-0.0012207,0.00585327,
3328,-0.00305176,0.00582886,
3330,-0.00976563,0.0059021,
3332,-0.00915527,0.00585938,
3334,0.000610352,0.00583496,
3336,0.0012207,0.00581055,
3338,0.00305176,0.0057312,
3340,-0.0115967,0.0057373,
3342,-0.00488281,0.0057312,
3344,-0.00366211,0.00565186,
3346,-0.00976563,0.00571289,
3348,-0.00549316,0.00570679,
3350,-0.00610352,0.0057312,
3352,-0.0170898,0.00579834,
3354,-0.00549316,0.00579834,
3356,-0.0152588,0.00588989,
3358,-0.00793457,0.00595093,
3360,-0.00305176,0.00595703,
3362,-0.00183105,0.00596313,
3364,-0.00671387,0.00602417,
3366,-0.00854492,0.00605469,
3368,-0.000610352,0.00602417,
3370,-0.00732422,0.00604248,
3372,-0.00976563,0.00611572,
3374,0.00183105,0.00612793,
3376,-0.00732422,0.00598755,
3378,-0.0134277,0.00610962,
3380,-0.000610352,0.00609741,
3382,-0.010376,0.00606079,
3384,-0.00427246,0.00609131,
3386,-0.00244141,0.00610352,
3388,-0.012207,0.00609741,
3390,0.0012207,0.00610352,
3392,-0.00671387,0.00615234,
3394,-0.00305176,0.00614014,
3396,-0.00488281,0.00617065,
3398,-0.00854492,0.00623169,
3400,0.000610352,0.00614624,
3402,-0.0012207,0.00613403,
3404,-0.00854492,0.00614014,
3406,-0.00671387,0.00615845,
3408,-0.00183105,0.00612183,
3410,0.00305176,0.0060791,
3412,-0.00183105,0.00603638,
3414,0.0012207,0.00601807,
3416,-0.00427246,0.00605469,
3418,0.00305176,0.00595703,
3420,-0.00671387,0.00596924,
3422,-0.0158691,0.0060791,
3424,0.00183105,0.0060791,
3426,0.00610352,0.00601196,
3428,-0.0256348,0.00618286,
3430,-0.000610352,0.00615845,
3432,-0.0164795,0.00618896,
3434,-0.0152588,0.00631714,
3436,0.00305176,0.00629272,
3438,-0.0128174,0.00636597,
3440,-0.00854492,0.00644531,
3442,-0.0170898,0.00656738,
3444,-0.00915527,0.00665894,
3446,-0.00549316,0.00663452,
3448,-0.00976563,0.00665894,
3450,-0.00671387,0.00671387,
3452,-0.00793457,0.00674438,
3454,-0.00549316,0.00671997,
3456,-0.00976563,0.00671387,
3458,-0.00915527,0.00670166,
3460,-0.00549316,0.00673828,
3462,-0.00488281,0.00678101,
3464,-0.00305176,0.00671997,
3466,-0.00854492,0.00670166,
3468,-0.00244141,0.00665894,
3470,-0.0012207,0.00666504,
3472,-0.00732422,0.00658569,
3474,-0.00488281,0.00662231,
3476,-0.00793457,0.00662842,
3478,0.00183105,0.00662231,
3480,-0.00610352,0.0065918,
3482,-0.0164795,0.00662231,
3484,-0.00732422,0.00668335,
3486,-0.00305176,0.00669556,
3488,0.00732422,0.00669556,
3490,-0.00427246,0.00664063,
3492,-0.00305176,0.00658569,
3494,-0.00305176,0.00648804,
3496,-0.00305176,0.00646362,
3498,-0.00671387,0.00644531,
3500,-0.0012207,0.00643311,
3502,-0.0164795,0.00651245,
3504,-0.00610352,0.00647583,
3506,-0.010376,0.00651245,
3508,-0.00488281,0.00648193,
3510,-0.0146484,0.00656738,
3512,-0.010376,0.00664673,
3514,-0.0012207,0.00661011,
3516,-0.00488281,0.006604,
3518,-0.00610352,0.00656738,
3520,-0.00976563,0.00664063,
3522,-0.0183105,0.00672607,
3524,-0.00671387,0.00675049,
3526,-0.00671387,0.00680542,
3528,-0.012207,0.00689697,
3530,-0.00854492,0.00688477,
3532,-0.012207,0.00691528,
3534,-0.00305176,0.0069397,
3536,-0.0109863,0.00703735,
3538,-0.00366211,0.00704346,
3540,0.00610352,0.00698853,
3542,-0.0134277,0.00707397,
3544,0.00305176,0.00706787,
3546,0.0219727,0.00718994,
3548,-0.0134277,0.00726929,
3550,-0.00305176,0.00723877,
3552,-0.00976563,0.00716553,
3554,0.00427246,0.00715332,
3556,-0.00183105,0.00701904,
3558,-0.00183105,0.00695801,
3560,-0.00671387,0.00699463,
3562,-0.0140381,0.0071167,
3564,0.000610352,0.00705566,
3566,-0.0012207,0.00698242,
3568,-0.0109863,0.00708618,
3570,-0.0109863,0.0071228,
3572,-0.00976563,0.0071228,
3574,-0.0109863,0.00721436,
3576,-0.0134277,0.00727539,
3578,-0.012207,0.00726318,
3580,-0.00671387,0.00732422,
3582,-0.0158691,0.00737915,
3584,-0.00305176,0.00736694,
3586,-0.00305176,0.00737305,
3588,-0.00671387,0.00731812,
3590,-0.00305176,0.00733643,
3592,-0.0128174,0.00739746,
3594,0.00488281,0.00741577,
3596,-0.010376,0.0074707,
3598,-0.00488281,0.00743408,
3600,0.00183105,0.00744629,
3602,-0.00976563,0.00753174,
3604,-0.00854492,0.00753174,
3606,-0.00427246,0.00750732,
3608,-0.00671387,0.00755615,
3610,-0.0012207,0.00753784,
3612,-0.00366211,0.00755615,
3614,-0.00366211,0.00758057,
3616,-0.00366211,0.00757446,
3618,-0.00610352,0.00760498,
3620,0.00366211,0.00757446,
3622,-0.00976563,0.00751343,
3624,0.00854492,0.00758057,
3626,-0.00305176,0.00755005,
3628,-0.00549316,0.00734863,
3630,-0.00610352,0.00740356,
3632,-0.00854492,0.00732422,
3634,0.00305176,0.00720215,
3636,-0.00793457,0.00725098,
3638,-0.00793457,0.00720215,
3640,-0.00488281,0.00716553,
3642,-0.00915527,0.00708618,
3644,-0.00488281,0.00704346,
3646,-0.00549316,0.00704346,
3648,-0.00244141,0.00697021,
3650,-0.00427246,0.0069458,
3652,-0.00671387,0.00693359,
3654,-0.00732422,0.0069519,
3656,-0.00549316,0.00690918,
3658,-0.00488281,0.00686646,
3660,-0.00793457,0.00689087,
3662,-0.00488281,0.00689087,
3664,-0.0109863,0.00697021,
3666,-0.00549316,0.0069397,
3668,-0.00183105,0.00693359,
3670,-0.00671387,0.00698853,
3672,-0.010376,0.00701904,
3674,-0.00427246,0.00701294,
3676,-0.00976563,0.00703125,
3678,-0.00305176,0.00704346,
3680,-0.00732422,0.00705566,
3682,-0.0177002,0.00706787,
3684,0.00366211,0.00703125,
3686,-0.00427246,0.00704346,
3688,-0.00610352,0.00703125,
3690,0.00610352,0.00704956,
3692,-0.00854492,0.00710449,
3694,-0.00671387,0.00714111,
3696,-0.00610352,0.00717163,
3698,0.00549316,0.00715942,
3700,-0.00915527,0.00723877,
3702,-0.010376,0.00717773,
3704,-0.00549316,0.00717163,
3706,-0.00427246,0.0071106,
3708,-0.00854492,0.00714722,
3710,-0.00854492,0.00708618,
3712,0.00244141,0.00700684,
3714,0.00854492,0.00708008,
3716,0.000610352,0.00703735,
3718,-0.00488281,0.00702515,
3720,-0.0109863,0.00703735,
3722,0.00244141,0.00687866,
3724,0.00427246,0.00685425,
3726,-0.00793457,0.00686646,
3728,-0.0146484,0.00689087,
3730,-0.0115967,0.00692139,
3732,-0.0134277,0.00693359,
3734,-0.00549316,0.00695801,
3736,-0.00915527,0.0069397,
3738,-0.00305176,0.00693359,
3740,-0.00183105,0.00689087,
3742,-0.012207,0.00687866,
3744,-0.00183105,0.00686646,
3746,-0.00915527,0.00673828,
3748,-0.00671387,0.00667114,
3750,0.00183105,0.00665894,
3752,-0.0140381,0.00670166,
3754,-0.010376,0.0067627,
3756,0.00366211,0.00678101,
3758,-0.00793457,0.00684204,
3760,-0.0140381,0.00691528,
3762,-0.00549316,0.00682983,
3764,0.00183105,0.00684204,
3766,-0.0109863,0.0069397,
3768,-0.00732422,0.00690308,
3770,-0.00793457,0.00687256,
3772,-0.00305176,0.00680542,
3774,-0.00793457,0.0067749,
3776,-0.010376,0.00674438,
3778,-0.00610352,0.00668335,
3780,-0.00366211,0.00665283,
3782,-0.010376,0.0065979,
3784,0.00183105,0.00658569,
3786,-0.0109863,0.00666504,
3788,-0.0109863,0.00670776,
3790,-0.00427246,0.00671997,
3792,-0.0158691,0.00675049,
3794,-0.00305176,0.00673218,
3796,0.00732422,0.00670166,
3798,-0.0140381,0.00679321,
3800,-0.00732422,0.00684814,
3802,-0.00366211,0.00678711,
3804,-0.0109863,0.00681152,
3806,-0.00549316,0.00682373,
3808,-0.00976563,0.00685425,
3810,-0.0115967,0.00695801,
3812,-0.00366211,0.00695801,
3814,0.0012207,0.00693359,
3816,0.00244141,0.00692139,
3818,-0.0219727,0.00708008,
3820,-0.00183105,0.00706177,
3822,-0.010376,0.00706787,
3824,0.00488281,0.00703125,
3826,-0.0158691,0.00715942,
3828,-0.00793457,0.00718384,
3830,-0.00793457,0.00720215,
3832,-0.00488281,0.00716553,
3834,0.0195313,0.00733032,
3836,0.0128174,0.00737915,
3838,-0.00854492,0.00738525,
3840,0.0219727,0.00755615,
3842,0.0183105,0.00764771,
3844,0.0164795,0.00776367,
3846,-0.0189209,0.00789795,
3848,-0.0109863,0.0079834,
3850,-0.012207,0.00806274,
3852,-0.0183105,0.00817871,
3854,-0.0286865,0.00839233,
3856,-0.0201416,0.00853882,
3858,-0.0256348,0.00874634,
3860,-0.0262451,0.00892944,
3862,-0.0164795,0.00904541,
3864,-0.0152588,0.00908813,
3866,0.00183105,0.00905151,
3868,-0.0195313,0.00922852,
3870,-0.010376,0.00926514,
3872,-0.0109863,0.00927124,
3874,-0.0012207,0.00924072,
3876,-0.0109863,0.00925293,
3878,-0.00976563,0.00932007,
3880,-0.00793457,0.00932617,
3882,-0.00732422,0.00922241,
3884,-0.0109863,0.00929565,
3886,0.0012207,0.00926514,
3888,-0.00854492,0.00928955,
3890,-0.00183105,0.00924683,
3892,-0.010376,0.00926514,
3894,-0.00610352,0.00925903,
3896,-0.00366211,0.00923462,
3898,-0.00488281,0.00922852,
3900,-0.00366211,0.00917358,
3902,-0.0164795,0.00923462,
3904,-0.00427246,0.00922241,
3906,-0.000610352,0.00918579,
3908,0.0012207,0.00911255,
3910,-0.00427246,0.00906982,
3912,0.00305176,0.00907593,
3914,0.00244141,0.00901489,
3916,0.0134277,0.00914307,
3918,0.0164795,0.00925903,
3920,-0.012207,0.00927124,
3922,-0.00915527,0.00933838,
3924,0.0250244,0.0095459,
3926,0.0280762,0.00974731,
3928,0.00976563,0.00969849,
3930,0.0115967,0.00969849,
3932,-0.0549316,0.0101135,
3934,-0.00549316,0.0101135,
3936,0.00610352,0.010083,
3938,-0.00976563,0.0101501,
3940,-0.0421143,0.010553,
3942,-0.0561523,0.0109924,
3944,-0.0274658,0.0112488,
3946,-0.00610352,0.0112183,
3948,0.0170898,0.011322,
3950,0.0195313,0.011499,
3952,-0.0366211,0.0117249,
3954,0.0109863,0.011731,
3956,0.0714111,0.0124084,
3958,0.0817871,0.013147,
3960,0.0109863,0.0131165,
3962,0.0268555,0.0133301,
3964,0.067749,0.0139893,
3966,0.0341797,0.0142212,
3968,-0.00915527,0.0142395,
3970,0.0238037,0.0143982,
3972,0.0183105,0.0145508,
3974,-0.0610352,0.0150818,
3976,-0.0701904,0.0156799,
3978,-0.0396729,0.0160156,
3980,-0.0396729,0.0163757,
3982,-0.0817871,0.0170898,
3984,-0.065918,0.0177307,
3986,-0.055542,0.0181763,
3988,-0.0378418,0.0184448,
3990,-0.0463867,0.018866,
3992,-0.0238037,0.0189453,
3994,-0.0170898,0.0190857,
3996,-0.0189209,0.0192017,
3998,-0.00610352,0.0191223,
4000,-0.00183105,0.0190674,
4002,-0.00549316,0.0190857,
4004,0.012207,0.0190979,
4006,0.0427246,0.0194702,
4008,-0.032959,0.0197021,
4010,-0.0128174,0.0197144,
4012,0.0183105,0.0198608,
4014,0.0646973,0.0204956,
4016,0.0238037,0.0207092,
4018,0.0640869,0.0211304,
4020,0.0244141,0.0213562,
4022,0.137939,0.0226318,
4024,0.0384521,0.0229675,
4026,0.0616455,0.0234253,
4028,0.0628662,0.0239746,
4030,0.0817871,0.0247131,
4032,0.125122,0.0259155,
4034,0.0195313,0.0259155,
4036,-0.0170898,0.0259583,
4038,0.144043,0.0273132,
4040,0.198364,0.0290771,
4042,-0.126953,0.0301636,
4044,0.128174,0.0312805,
4046,0.318604,0.0342773,
4048,-0.109863,0.0352661,
4050,0.0598145,0.0357422,
4052,0.0219727,0.0357788,
4054,0.0622559,0.0361145,
4056,-0.0842285,0.0367554,
4058,-0.153809,0.0380371,
4060,-0.0970459,0.0387451,
4062,-0.0866699,0.039447,
4064,-0.065918,0.0399536,
4066,-0.140991,0.0413452,
4068,-0.0463867,0.0416138,
4070,-0.098877,0.0424988,
4072,-0.0457764,0.0428467,
4074,-0.103149,0.043866,
4076,-0.113525,0.0448914,
4078,-0.0128174,0.0449219,
4080,-0.131226,0.0461548,
4082,-0.115356,0.0472351,
4084,-0.0769043,0.0478943,
4086,-0.120239,0.0490845,
4088,-0.0860596,0.0498596,
4090,-0.0280762,0.0501221,
4092,-0.0140381,0.0501587,
4094,-0.0537109,0.0506348,
4096,-0.0500488,0.0510986,
4098,0.0238037,0.0512878,
4100,0.00854492,0.0513367,
4102,-0.0610352,0.0517822,
4104,-0.0183105,0.0519226,
4106,0.0238037,0.0521545,
4108,0.115967,0.053302,
4110,-0.0689697,0.053949,
4112,-0.0653076,0.0545715,
4114,0.0653076,0.0552002,
4116,0.00854492,0.0551514,
4118,0.0164795,0.0551514,
4120,-0.0366211,0.0553955,
4122,0.0616455,0.0559204,
4124,-0.00732422,0.0557434,
4126,-0.00793457,0.055542,
4128,0.0842285,0.0562866,
4130,0.112915,0.0572998,
4132,-0.00366211,0.0567871,
4134,-0.0476074,0.0572083,
4136,0.19165,0.0590637,
4138,-0.0128174,0.0590942,
4140,0.0732422,0.0594055,
4142,-0.0933838,0.0597778,
4144,0.0567627,0.0600708,
4146,-0.0579834,0.0605896,
4148,-0.0585938,0.0610046,
4150,-0.055542,0.0613647,
4152,-0.00976563,0.0610962,
4154,-0.0421143,0.0614075,
4156,-0.055542,0.0612488,
4158,0.0189209,0.0606201,
4160,0.0238037,0.0607483,
4162,-0.0152588,0.0606323,
4164,0.0128174,0.060083,
4166,0.0390625,0.0601318,
4168,-0.020752,0.0602478,
4170,0.0488281,0.060498,
4172,-0.0109863,0.0604248,
4174,0.0152588,0.059967,
4176,0.020752,0.0594727,
4178,0.0396729,0.0594727,
4180,0.0427246,0.0595032,
4182,0.0177002,0.0588623,
4184,0.0610352,0.0588135,
4186,0.0744629,0.0590027,
4188,0.163574,0.06026,
4190,-0.0567627,0.0603638,
4192,0.0366211,0.0604919,
4194,0.098877,0.0613098,
4196,0.0445557,0.0615662,
4198,0.032959,0.0618347,
4200,-0.0164795,0.0619812,
4202,0.0726318,0.0626526,
4204,0.00305176,0.062561,
4206,0.103149,0.0631653,
4208,-0.0457764,0.0632935,
4210,0,0.0631653,
4212,0.0817871,0.0638,
4214,0.0714111,0.0638672,
4216,0.165405,0.0652832,
4218,-0.145874,0.0661011,
4220,0.0274658,0.0661316,
4222,0.117188,0.0659241,
4224,-0.100708,0.0665466,
4226,0.0921631,0.0668518,
4228,-0.105591,0.0672791,
4230,0.00610352,0.0665222,
4232,0.0665283,0.0659363,
4234,0.0244141,0.0659851,
4236,-0.0183105,0.0659973,
4238,0.090332,0.0654602,
4240,0.0177002,0.0636536,
4242,0.118408,0.0635681,
4244,0.108643,0.0633728,
4246,0.0701904,0.0608887,
4248,0.0341797,0.0601318,
4250,0.00244141,0.0595581,
4252,-0.00549316,0.0593933,
4254,0.0280762,0.0590515,
4256,0.0982666,0.0591919,
4258,0.0836182,0.05849,
4260,0.032959,0.0578491,
4262,-0.0537109,0.0575195,
4264,-0.0500488,0.0573608,
4266,0.109863,0.0570496,
4268,0.106812,0.0576538,
4270,-0.158081,0.0582458,
4272,-0.0305176,0.0580933,
4274,-0.010376,0.0571655,
4276,0.0134277,0.0561646,
4278,0.0158691,0.0561951,
4280,-0.155029,0.0564331,
4282,-0.00793457,0.0553589,
4284,0.133667,0.0559265,
4286,-0.143433,0.0561584,
4288,0.192871,0.0572266,
4290,-0.234375,0.0592896,
4292,-0.0195313,0.0593445,
4294,0.032959,0.059137,
4296,0.065918,0.0592957,
4298,-0.144043,0.060498,
4300,0.167847,0.0620911,
4302,-0.212402,0.0636047,
4304,-0.0231934,0.0636536,
4306,0.0213623,0.0636292,
4308,-0.0128174,0.0625977,
4310,-0.0256348,0.0621643,
4312,-0.020752,0.0617188,
4314,-0.0317383,0.0613831,
4316,-0.0012207,0.0613098,
4318,-0.000610352,0.0611511,
4320,0.0585938,0.0613708,
4322,0.098877,0.0617432,
4324,-0.0213623,0.0618835,
4326,-0.00854492,0.0618896,
4328,0.0250244,0.0612976,
4330,0.0823975,0.0609924,
4332,-0.0354004,0.0613098,
4334,0.0152588,0.0609863,
4336,0.00671387,0.059137,
4338,-0.00427246,0.0590515,
4340,0.0408936,0.058728,
4342,-0.109253,0.0588867,
4344,0.0793457,0.0591125,
4346,0.0909424,0.0594421,
4348,-0.0701904,0.0595581,
4350,-0.0238037,0.0592407,
4352,0.0201416,0.0593445,
4354,-0.0164795,0.0590881,
4356,0.0280762,0.0588135,
4358,-0.043335,0.0590576,
4360,-0.0274658,0.0590942,
4362,0.0494385,0.059436,
4364,-0.0244141,0.059552,
4366,-0.020752,0.0593689,
4368,-0.109863,0.06026,
4370,0.161133,0.0613831,
4372,0.0952148,0.0622253,
4374,-0.0421143,0.0624939,
4376,-0.136719,0.0636536,
4378,0.100708,0.0642639,
4380,-0.00305176,0.0638672,
4382,-0.00854492,0.0637756,
4384,-0.0476074,0.0636414,
4386,0.0164795,0.0630615,
4388,0.202026,0.063446,
4390,-0.234375,0.0652222,
4392,0.170898,0.0665649,
4394,0.0463867,0.06604,
4396,-0.0976563,0.066571,
4398,0.0775146,0.0670166,
4400,-0.0415039,0.0672668,
4402,0.0299072,0.0668396,
4404,-0.0537109,0.0673462,
4406,-0.0646973,0.0669617,
4408,0.088501,0.0673889,
4410,-0.0683594,0.0680725,
4412,0.100098,0.0682556,
4414,-0.150146,0.069043,
4416,0.0958252,0.0683472,
4418,-0.0421143,0.0673096,
4420,-0.0274658,0.0673096,
4422,-0.0457764,0.0665955,
4424,-0.098877,0.0665771,
4426,0.0701904,0.0663574,
4428,0.0274658,0.0655762,
4430,-0.0946045,0.0664612,
4432,0.00854492,0.0658813,
4434,-0.0189209,0.0658264,
4436,0.0683594,0.0663269,
4438,-0.0354004,0.0657776,
4440,-0.0811768,0.0664124,
4442,0.0744629,0.0659729,
4444,-0.0152588,0.0650391,
4446,-0.0390625,0.0647278,
4448,0.0146484,0.0645325,
4450,0.0384521,0.0648926,
4452,-0.00610352,0.0648987,
4454,0.0311279,0.0649292,
4456,-0.0476074,0.0644226,
4458,-0.000610352,0.0635925,
4460,0.00366211,0.0632996,
4462,-0.0109863,0.0628723,
4464,-0.0219727,0.0625916,
4466,0.00183105,0.0615112,
4468,-0.00793457,0.0605225,
4470,-0.0946045,0.0598877,
4472,0.0250244,0.0598328,
4474,0.26001,0.0623291,
4476,-0.17395,0.0639343,
4478,0.0152588,0.0639282,
4480,0.0415039,0.062793,
4482,-0.0238037,0.0629517,
4484,0.0360107,0.0619751,
4486,-0.0531006,0.0610718,
4488,0.0311279,0.0594543,
4490,-0.0836182,0.0579468,
4492,0.0915527,0.058667,
4494,-0.00549316,0.0583923,
4496,-0.0524902,0.0582581,
4498,0.0579834,0.0573975,
4500,-0.0799561,0.0565186,
4502,0.0402832,0.0547974,
4504,0.010376,0.0546692,
4506,-0.00915527,0.0545471,
4508,0.00976563,0.0545166,
4510,-0.0280762,0.054541,
4512,-0.0146484,0.05448,
4514,-0.00488281,0.0542114,
4516,0.0378418,0.0545776,
4518,-0.0952148,0.0555237,
4520,0.0140381,0.0550781,
4522,-0.0616455,0.0547058,
4524,-0.0274658,0.0547668,
4526,0.0128174,0.0548096,
4528,-0.00732422,0.0546326,
4530,-0.117798,0.0549866,
4532,0.0854492,0.0554871,
4534,-0.0262451,0.0555969,
4536,0.0415039,0.0559448,
4538,-0.0189209,0.0560913,
4540,0.020752,0.0558899,
4542,0.00793457,0.0548767,
4544,-0.0360107,0.0544434,
4546,-0.0115967,0.0536499,
4548,0.0219727,0.0531677,
4550,0.0286865,0.0532166,
4552,-0.0201416,0.0532166,
4554,-0.0592041,0.0536438,
4556,-0.0158691,0.0535217,
4558,0.0268555,0.0533569,
4560,0.0158691,0.053241,
4562,0.065918,0.0534058,
4564,-0.0738525,0.0539001,
4566,-0.0701904,0.0543945,
4568,0.0549316,0.0538452,
4570,-0.0634766,0.0528687,
4572,0.0524902,0.0524414,
4574,0.00854492,0.0521057,
4576,-0.0506592,0.0512451,
4578,-0.0238037,0.0504761,
4580,0.022583,0.0506714,
4582,0.0244141,0.0508301,
4584,-0.010376,0.0504578,
4586,-0.0115967,0.0504089,
4588,-0.022583,0.0486145,
4590,0.0402832,0.0466736,
4592,-0.0256348,0.0452209,
4594,-0.032959,0.0450867,
4596,-0.00549316,0.044165,
4598,-0.0238037,0.0436279,
4600,-0.000610352,0.043219,
4602,0.0311279,0.0432312,
4604,0.0128174,0.0428223,
4606,0.0469971,0.0426453,
4608,-0.00915527,0.0418518,
4610,-0.0244141,0.0414124,
4612,0.0115967,0.0405273,
4614,0.0164795,0.0391907,
4616,0.0689697,0.0389221,
4618,-0.111694,0.0396179,
4620,-0.0201416,0.0395447,
4622,0.0262451,0.0393494,
4624,-0.0109863,0.0384705,
4626,-0.03479,0.0381165,
4628,-0.00671387,0.0379089,
4630,-0.0201416,0.0371643,
4632,-0.00366211,0.0371155,
4634,-0.0378418,0.0373047,
4636,0.0250244,0.0368713,
4638,-0.0250244,0.0367676,
4640,-0.0262451,0.0362183,
4642,0.0268555,0.0357422,
4644,0.0012207,0.0356018,
4646,-0.00976563,0.0353088,
4648,-0.00549316,0.0352173,
4650,0.0201416,0.0350342,
4652,0.0268555,0.0352417,
4654,-0.043335,0.0353638,
4656,-0.0323486,0.0352112,
4658,0.0158691,0.0353638,
4660,0.0701904,0.0360291,
4662,0.00610352,0.0359802,
4664,0.0488281,0.0362488,
4666,-0.00305176,0.036261,
4668,0.0341797,0.0365234,
4670,0.0512695,0.0360901,
4672,-0.0335693,0.0361755,
4674,-0.00244141,0.0335999,
4676,0.022583,0.0320862,
4678,-0.0646973,0.0325806,
4680,-0.0219727,0.0323853,
4682,-0.0109863,0.0322571,
4684,-0.115356,0.0330505,
4686,-0.00244141,0.0325439,
4688,-0.00915527,0.0323242,
4690,-0.0170898,0.0316589,
4692,-0.020752,0.0309509,
4694,-0.0457764,0.0313538,
4696,-0.00610352,0.0308899,
4698,-0.0476074,0.0307861,
4700,0.0134277,0.0301208,
4702,-0.0213623,0.0299316,
4704,-0.0201416,0.0300293,
4706,0.0506592,0.0304443,
4708,-0.032959,0.0306763,
4710,-0.0158691,0.0305542,
4712,-0.0146484,0.0305542,
4714,0.00305176,0.0305359,
4716,0.0164795,0.0303223,
4718,-0.0280762,0.0296509,
4720,0.000610352,0.0295166,
4722,0.00244141,0.0289246,
4724,0.0170898,0.0288208,
4726,-0.0323486,0.0290161,
4728,0.0280762,0.0292236,
4730,0.00427246,0.0280884,
4732,0.032959,0.0275635,
4734,0.00427246,0.0273438,
4736,-0.0360107,0.0272888,
4738,0.0250244,0.0273499,
4740,0.0115967,0.0272583,
4742,-0.0384521,0.0275635,
4744,-0.00976563,0.027301,
4746,0.0183105,0.0273682,
4748,-0.0500488,0.0276489,
4750,-0.0506592,0.0278687,
4752,0.0415039,0.0280823,
4754,-0.0531006,0.0280212,
4756,-0.0158691,0.0280212,
4758,0.0286865,0.0280396,
4760,0.0268555,0.0281494,
4762,-0.0372314,0.0278625,
4764,0.00915527,0.0272156,
4766,-0.00976563,0.0266113,
4768,0.0488281,0.0265503,
4770,-0.0189209,0.0261047,
4772,0.0354004,0.0259338,
4774,-0.0579834,0.0264282,
4776,0.00549316,0.0259766,
4778,0.0323486,0.026062,
4780,0,0.0258362,
4782,-0.010376,0.0256958,
4784,0.0177002,0.025769,
4786,-0.0268555,0.0259216,
4788,0.065918,0.026355,
4790,0.0701904,0.0266541,
4792,-0.0939941,0.0273376,
4794,-0.0219727,0.0272278,
4796,0.0476074,0.0276489,
4798,-0.022583,0.0276367,
4800,-0.0164795,0.0277954,
4802,-0.0476074,0.0279602,
4804,-0.00305176,0.0278625,
4806,0.0170898,0.0275635,
4808,-0.078125,0.0282532,
4810,0.000610352,0.0280151,
4812,0.00183105,0.0279175,
4814,0.00854492,0.0278381,
4816,-0.0726318,0.0278748,
4818,0.0115967,0.0268738,
4820,-0.0274658,0.026947,
4822,-0.0317383,0.027002,
4824,0.0292969,0.0271851,
4826,-0.0646973,0.0274841,
4828,0.0311279,0.0277283,
4830,0.0268555,0.0277954,
4832,-0.00305176,0.0277893,
4834,0.00244141,0.0274353,
4836,-0.012207,0.0273071,
4838,0.0268555,0.0273254,
4840,0.0341797,0.0274048,
4842,-0.0140381,0.0272766,
4844,-0.0512695,0.0277771,
4846,0.00671387,0.0277466,
4848,0.0317383,0.028009,
4850,-0.012207,0.0279297,
4852,-0.00488281,0.02771,
4854,-0.0286865,0.0275635,
4856,0.0158691,0.0273987,
4858,-0.00183105,0.0272583,
4860,0.00183105,0.0265747,
4862,-0.0158691,0.0266724,
4864,-0.00854492,0.0262695,
4866,0.045166,0.0266907,
4868,-0.0561523,0.0269104,
4870,-0.022583,0.0266235,
4872,-0.012207,0.0264099,
4874,0.0305176,0.0266907,
4876,0.055542,0.0270203,
4878,-0.0634766,0.0270081,
4880,-0.0500488,0.0272888,
4882,0.0720215,0.0278992,
4884,0.0256348,0.027002,
4886,-0.0115967,0.0270935,
4888,0.012207,0.027124,
4890,-0.022583,0.027179,
4892,0.0384521,0.027356,
4894,-0.0164795,0.027063,
4896,-0.0311279,0.0273132,
4898,-0.0280762,0.0271179,
4900,-0.0201416,0.0271851,
4902,-0.0238037,0.0272095,
4904,-0.0317383,0.0273254,
4906,-0.0354004,0.0271729,
4908,0.00793457,0.0269226,
4910,0.00793457,0.0268433,
4912,0.0256348,0.0269531,
4914,0.0170898,0.0270935,
4916,-0.0457764,0.0273865,
4918,0.119629,0.028302,
4920,-0.0146484,0.0284424,
4922,0.0408936,0.0288269,
4924,0.00610352,0.028717,
4926,-0.00671387,0.0284607,
4928,-0.0183105,0.028363,
4930,-0.0183105,0.0285034,
4932,-0.0390625,0.0285645,
4934,0.0140381,0.0286621,
4936,-0.0201416,0.0285034,
4938,-0.000610352,0.0282593,
4940,-0.0500488,0.0286438,
4942,-0.020752,0.0284668,
4944,-0.0579834,0.028949,
4946,-0.0115967,0.0288818,
4948,0.0134277,0.0285156,
4950,-0.0250244,0.0282593,
4952,-0.0201416,0.0280457,
4954,-0.00610352,0.0275757,
4956,-0.0402832,0.0278198,
4958,-0.0170898,0.0277039,
4960,0.0341797,0.0277771,
4962,0.0244141,0.0276489,
4964,-0.0115967,0.0276733,
4966,-0.0579834,0.0281555,
4968,0.0439453,0.0281067,
4970,0.00915527,0.028009,
4972,0.00732422,0.0277283,
4974,-0.020752,0.027356,
4976,0.0238037,0.0275391,
4978,-0.0421143,0.0276367,
4980,0.0115967,0.0277527,
4982,-0.0421143,0.0280701,
4984,0.0384521,0.0282776,
4986,-0.0238037,0.0282471,
4988,0.00366211,0.0276245,
4990,-0.0494385,0.027417,
4992,0.0390625,0.0268677,
4994,0.0354004,0.027002,
4996,-0.00976563,0.0266235,
4998,-0.00610352,0.0264587,
5000,-0.00366211,0.0263306,
5002,0.00915527,0.025946,
5004,-0.0323486,0.026239,
5006,-0.00976563,0.0261658,
5008,-0.0262451,0.025647,
5010,0.0610352,0.0262512,
5012,-0.0158691,0.0263916,
5014,-0.0762939,0.0270691,
5016,-0.0170898,0.0265137,
5018,0.0933838,0.0273315,
5020,-0.0140381,0.0271973,
5022,-0.0537109,0.027417,
5024,-0.00427246,0.0271667,
5026,0.0128174,0.0266479,
5028,0.00183105,0.026355,
5030,-0.00305176,0.0261169,
5032,0.0317383,0.0264038,
5034,0.0469971,0.0268494,
5036,-0.0384521,0.0271118,
5038,0.00305176,0.0268738,
5040,-0.00610352,0.026593,
5042,-0.0152588,0.0266052,
5044,0.0292969,0.0263855,
5046,0.0134277,0.0264526,
5048,-0.0952148,0.0270874,
5050,-0.0146484,0.0271118,
5052,0.00854492,0.0271484,
5054,0.0341797,0.0272034,
5056,0.00549316,0.0270996,
5058,-0.0787354,0.0278687,
5060,-0.0128174,0.0279785,
5062,0.0311279,0.0281311,
5064,-0.0146484,0.0281921,
5066,-0.0494385,0.0282349,
5068,-0.0140381,0.0278137,
5070,-0.00976563,0.0276855,
5072,-0.0384521,0.027948,
5074,0.0158691,0.0278015,
5076,0.0128174,0.0273743,
5078,0.0445557,0.0271851,
5080,0.0256348,0.0269409,
5082,-0.0335693,0.0265564,
5084,0.0671387,0.0269714,
5086,0.0500488,0.027356,
5088,-0.0262451,0.0274963,
5090,-0.0219727,0.0274902,
5092,-0.0323486,0.0274292,
5094,0.0195313,0.0274597,
5096,-0.022583,0.0273743,
5098,0.0219727,0.0273132,
5100,-0.0128174,0.02724,
5102,-0.00793457,0.0270813,
5104,0.0170898,0.0269348,
5106,-0.0195313,0.0267761,
5108,0.000610352,0.0267029,
5110,0.0268555,0.0268921,
5112,-0.0482178,0.0271179,
5114,0.032959,0.0272766,
5116,0.000610352,0.026825,
5118,-0.0354004,0.0259827,
5120,-0.0494385,0.0263306,
5122,0.0292969,0.0262146,
5124,-0.0421143,0.0265747,
5126,-0.0396729,0.0269043,
5128,0.0201416,0.0269226,
5130,0.0189209,0.0269287,
5132,-0.00366211,0.0265747,
5134,-0.032959,0.0267639,
5136,0.0201416,0.0267639,
5138,0.0280762,0.0270386,
5140,0.010376,0.0266418,
5142,-0.00671387,0.0265015,
5144,0.0268555,0.0261902,
5146,0.0317383,0.0263916,
5148,-0.03479,0.0266052,
5150,0.0170898,0.0265259,
5152,-0.00915527,0.026416,
5154,-0.0213623,0.0265686,
5156,0.0415039,0.0265808,
5158,-0.0445557,0.0268555,
5160,-0.0219727,0.0267334,
5162,-0.0134277,0.0266235,
5164,0.0262451,0.02677,
5166,0.0427246,0.0266174,
5168,0.0195313,0.0263733,
5170,-0.0823975,0.0271057,
5172,0.0177002,0.0272095,
5174,-0.0158691,0.0271606,
5176,-0.0158691,0.0270813,
5178,-0.0531006,0.0271912,
5180,0.00976563,0.0271729,
5182,-0.0219727,0.0269714,
5184,-0.012207,0.026709,
5186,0.0317383,0.0267883,
5188,0.00671387,0.0268188,
5190,-0.00366211,0.0263611,
5192,-0.0280762,0.0262512,
5194,0.0244141,0.0261414,
5196,0.0524902,0.0265686,
5198,-0.0628662,0.0271362,
5200,0.0634766,0.0277344,
5202,-0.0115967,0.0277588,
5204,0.00427246,0.027478,
5206,0.0396729,0.0277771,
5208,0.0250244,0.0277649,
5210,-0.0646973,0.0278015,
5212,0.0292969,0.0279358,
5214,-0.00915527,0.0272644,
5216,-0.0439453,0.027533,
5218,-0.0195313,0.0267944,
5220,-0.00549316,0.026709,
5222,-0.0762939,0.0269348,
5224,0.0775146,0.0276672,
5226,0.03479,0.027887,
5228,-0.0726318,0.028595,
5230,-0.0152588,0.028717,
5232,0.0177002,0.0285767,
5234,-0.0323486,0.0284302,
5236,0.0201416,0.0282471,
5238,-0.0701904,0.0289185,
5240,0,0.0288574,
5242,0.0256348,0.0289612,
5244,-0.0311279,0.0289795,
5246,-0.0341797,0.029187,
5248,0.151367,0.0297485,
5250,-0.0787354,0.0303894,
5252,0.0561523,0.0308655,
5254,0.00671387,0.0305908,
5256,0.0262451,0.0307983,
5258,-0.0482178,0.0304932,
5260,-0.03479,0.0307129,
5262,-0.0164795,0.0305664,
5264,0.0506592,0.0309265,
5266,-0.0823975,0.0312561,
5268,0.0549316,0.031665,
5270,-0.0964355,0.0325317,
5272,-0.0280762,0.032428,
5274,0.00183105,0.0322876,
5276,0.0262451,0.0324219,
5278,0.03479,0.0323242,
5280,0.0012207,0.0320801,
5282,-0.0714111,0.0324585,
5284,-0.0164795,0.0319519,
5286,0.0311279,0.0317627,
5288,-0.0256348,0.0317566,
5290,-0.0177002,0.0317139,
5292,-0.00732422,0.0314636,
5294,-0.0634766,0.0319031,
5296,-0.00793457,0.0317566,
5298,-0.057373,0.0321106,
5300,0.111084,0.0330933,
5302,-0.0567627,0.0335815,
5304,-0.0390625,0.0338013,
5306,-0.0592041,0.034198,
5308,-0.0488281,0.0346802,
5310,0.153809,0.0359497,
5312,-0.020752,0.035675,
5314,-0.0872803,0.0362183,
5316,0.00732422,0.0362854,
5318,0.0787354,0.0367187,
5320,-0.0421143,0.0366455,
5322,-0.00976563,0.0364502,
5324,0.00732422,0.0361023,
5326,-0.00793457,0.0357849,
5328,0.0817871,0.0364014,
5330,-0.057373,0.0367859,
5332,-0.0189209,0.0369385,
5334,-0.00244141,0.0366333,
5336,0.0390625,0.0368225,
5338,0.0646973,0.0371887,
5340,-0.0341797,0.0374268,
5342,-0.178223,0.0391418,
5344,0.116577,0.0400391,
5346,0.055542,0.0402771,
5348,-0.109863,0.0410278,
5350,0.0341797,0.0411987,
5352,-0.0415039,0.0415222,
5354,-0.0445557,0.0417542,
5356,0.00549316,0.041394,
5358,-0.0476074,0.0414246,
5360,-0.0146484,0.0413513,
5362,-0.0378418,0.0415955,
5364,0.0726318,0.0420593,
5366,-0.0738525,0.0423706,
5368,-0.0250244,0.0424255,
5370,0.0439453,0.042041,
5372,0.0543213,0.0424072,
5374,-0.0531006,0.0427795,
5376,-0.00366211,0.0426575,
5378,-0.0701904,0.0428284,
5380,-0.0183105,0.0429138,
5382,-0.0128174,0.0428223,
5384,-0.000610352,0.0427063,
5386,-0.0311279,0.0427002,
5388,-0.0561523,0.0431946,
5390,0.00244141,0.0431824,
5392,-0.00915527,0.0429932,
5394,0.0494385,0.0432434,
5396,0.00549316,0.0427734,
5398,-0.106812,0.0432129,
5400,0.0268555,0.0428467,
5402,0.0195313,0.042926,
5404,-0.0805664,0.043689,
5406,0.0335693,0.0436279,
5408,-0.0390625,0.0437683,
5410,-0.0140381,0.0432617,
5412,-0.0427246,0.043396,
5414,0.012207,0.0434265,
5416,-0.0183105,0.0431702,
5418,0.00610352,0.0430359,
5420,-0.0634766,0.0436157,
5422,0.114746,0.0440002,
5424,-0.0317383,0.0435425,
5426,0.0585938,0.0437805,
5428,-0.109863,0.0441528,
5430,0.0213623,0.0442139,
5432,0.0439453,0.0444763,
5434,0.0823975,0.0449768,
5436,-0.0531006,0.0453064,
5438,0.145264,0.0460571,
5440,-0.119019,0.0472473,
5442,-0.00854492,0.0470764,
5444,-0.0012207,0.0467773,
5446,0.0476074,0.0469116,
5448,0.0500488,0.0458984,
5450,-0.110474,0.0462158,
5452,-0.0323486,0.0459778,
5454,-0.00244141,0.0459351,
5456,-0.065918,0.0463318,
5458,-0.0445557,0.0462952,
5460,-0.0524902,0.0464722,
5462,-0.0598145,0.0469055,
5464,-0.020752,0.0466064,
5466,-0.0299072,0.0460815,
5468,-0.045166,0.0459839,
5470,-0.0183105,0.0452026,
5472,0.0317383,0.0452393,
5474,0.00610352,0.045282,
5476,-0.0189209,0.0452087,
5478,0.0305176,0.045166,
5480,-0.0354004,0.0455078,
5482,0.0634766,0.0454285,
5484,-0.00549316,0.0453186,
5486,-0.00976563,0.045105,
5488,-0.00427246,0.0448914,
5490,-0.00976563,0.044812,
5492,0.00732422,0.044812,
5494,-0.0549316,0.0447266,
5496,-0.0323486,0.0449707,
5498,0.0323486,0.0447205,
5500,-0.0134277,0.0437439,
5502,-0.00366211,0.0432129,
5504,-0.0567627,0.0433899,
5506,-0.012207,0.0429199,
5508,0.00305176,0.0424622,
5510,0.0469971,0.041394,
5512,0.0494385,0.0416809,
5514,0.0402832,0.0412109,
5516,-0.0604248,0.0417419,
5518,0.0354004,0.0413086,
5520,0.0231934,0.0411194,
5522,0.00976563,0.0411194,
5524,0.00427246,0.0410889,
5526,0.0915527,0.041925,
5528,-0.0140381,0.0412476,
5530,-0.0598145,0.041272,
5532,0.0158691,0.0412415,
5534,0.0366211,0.0415833,
5536,0.00671387,0.0412598,
5538,-0.0439453,0.0410522,
5540,-0.0421143,0.0411316,
5542,-0.0170898,0.0395203,
5544,-0.00976563,0.0384521,
5546,-0.0115967,0.0380127,
5548,0.0506592,0.0374207,
5550,-0.0628662,0.0377075,
5552,-0.0366211,0.0376587,
5554,0.0500488,0.0377136,
5556,-0.0592041,0.0382507,
5558,-0.00732422,0.0378479,
5560,-0.0366211,0.0380676,
5562,-0.00976563,0.0377869,
5564,-0.0372314,0.0374329,
5566,0.0280762,0.0369751,
5568,0.00427246,0.0367676,
5570,-0.00366211,0.0363647,
5572,0.0323486,0.036145,
5574,0.118408,0.0367981,
5576,-0.0750732,0.0375122,
5578,-0.0183105,0.0369934,
5580,0.0482178,0.0372925,
5582,-0.0390625,0.0375549,
5584,-0.0170898,0.0377197,
5586,-0.0213623,0.0376221,
5588,0.00183105,0.0370789,
5590,-0.0439453,0.0374939,
5592,-0.045166,0.037854,
5594,0.098877,0.0383484,
5596,0.0622559,0.038916,
5598,-0.022583,0.0380737,
5600,0.0439453,0.0382446,
5602,-0.00610352,0.0381104,
5604,-0.00976563,0.0374023,
5606,0.0445557,0.0375122,
5608,0.0115967,0.0372375,
5610,-0.0299072,0.0373962,
5612,0.0177002,0.037146,
5614,-0.0201416,0.0372253,
5616,-0.055542,0.0375977,
5618,0.010376,0.0376404,
5620,0.0445557,0.0374512,
5622,-0.0213623,0.0365173,
5624,0.0488281,0.0366882,
5626,-0.03479,0.0364502,
5628,-0.0415039,0.0357666,
5630,0.0262451,0.0358154,
5632,0.0128174,0.0355042,
5634,-0.012207,0.0348022,
5636,-0.0164795,0.034436,
5638,-0.0158691,0.0331421,
5640,-0.0219727,0.0321716,
5642,0.0341797,0.032428,
5644,0.010376,0.0325195,
5646,-0.0628662,0.0326721,
5648,0.00732422,0.0322449,
5650,0.012207,0.0312622,
5652,-0.0128174,0.0310669,
5654,-0.0323486,0.031366,
5656,-0.032959,0.0310364,
5658,-0.0170898,0.0307617,
5660,-0.0244141,0.030481,
5662,-0.00854492,0.0299683,
5664,0.0292969,0.0300537,
5666,0.0280762,0.0300354,
5668,-0.0268555,0.0298523,
5670,0.0189209,0.0298584,
5672,0.0164795,0.0297058,
5674,0.0213623,0.0298584,
5676,-0.0189209,0.0298584,
5678,0.00305176,0.0295837,
5680,0.0012207,0.0292419,
5682,0,0.0286072,
5684,0.0115967,0.0286682,
5686,0.010376,0.0286743,
5688,-0.0213623,0.0288452,
5690,0.0335693,0.0290833,
5692,0.00793457,0.0290894,
5694,0.00549316,0.028595,
5696,-0.0164795,0.0284363,
5698,-0.010376,0.0282166,
5700,0.0115967,0.0281982,
5702,0.0158691,0.0283203,
5704,-0.0213623,0.0279663,
5706,-0.022583,0.0280701,
5708,-0.00488281,0.0280884,
5710,-0.00793457,0.0276978,
5712,0.00671387,0.0272705,
5714,-0.00793457,0.026947,
5716,-0.00671387,0.0264099,
5718,0.0164795,0.0262207,
5720,-0.020752,0.0261963,
5722,0.022583,0.0263245,
5724,0.00610352,0.0263428,
5726,-0.00854492,0.0255127,
5728,-0.00183105,0.0253906,
5730,-0.00976563,0.0248901,
5732,-0.0366211,0.0250977,
5734,-0.0128174,0.0248596,
5736,-0.0238037,0.0250305,
5738,-0.0317383,0.0249084,
5740,-0.0164795,0.0246521,
5742,-0.0152588,0.0246338,
5744,-0.0274658,0.0248108,
5746,-0.0140381,0.0248352,
5748,-0.010376,0.0244324,
5750,-0.00976563,0.0239014,
5752,-0.00732422,0.0236084,
5754,-0.0164795,0.0232727,
5756,-0.00488281,0.0227295,
5758,0,0.0226562,
5760,-0.0109863,0.0223999,
5762,-0.00976563,0.0223999,
5764,-0.00610352,0.0220886,
5766,-0.00732422,0.0218811,
5768,-0.00366211,0.021875,
5770,-0.00244141,0.0218628,
5772,-0.00427246,0.021582,
5774,-0.00244141,0.0204224,
5776,-0.00610352,0.0197327,
5778,-0.00549316,0.0196045,
5780,-0.00854492,0.0192078,
5782,-0.00244141,0.0188416,
5784,-0.00793457,0.01875,
5786,-0.00793457,0.0186157,
5788,-0.00793457,0.0186768,
5790,0.0158691,0.018396,
5792,-0.0201416,0.0181458,
5794,-0.00976563,0.0172546,
5796,0.00854492,0.0167175,
5798,-0.00793457,0.016571,
5800,-0.00976563,0.0162292,
5802,-0.012207,0.0162903,
5804,-0.00793457,0.016272,
5806,-0.0164795,0.0159912,
5808,-0.00610352,0.0159363,
5810,-0.0201416,0.0158386,
5812,-0.0146484,0.0158081,
5814,-0.00793457,0.015686,
5816,-0.0164795,0.0152954,
5818,-0.00854492,0.0152771,
5820,-0.010376,0.0149353,
5822,-0.0134277,0.014856,
5824,-0.00610352,0.0144287,
5826,-0.0140381,0.0142212,
5828,-0.0128174,0.0139343,
5830,-0.00915527,0.0137634,
5832,-0.0158691,0.0137939,
5834,-0.00732422,0.0137451,
5836,-0.012207,0.0137024,
5838,-0.012207,0.0136658,
5840,-0.0109863,0.0135559,
5842,-0.0115967,0.0133301,
5844,-0.00427246,0.013269,
5846,-0.0134277,0.0127747,
5848,-0.00305176,0.0127319,
5850,-0.0201416,0.0128113,
5852,-0.0146484,0.0128296,
5854,-0.00915527,0.0125977,
5856,-0.020752,0.0124756,
5858,-0.0140381,0.0124451,
5860,-0.00610352,0.012262,
5862,-0.00915527,0.0122681,
5864,-0.0134277,0.0121094,
5866,-0.0280762,0.0121094,
5868,-0.00427246,0.0118835,
5870,-0.00488281,0.0117432,
5872,-0.0164795,0.0117432,
5874,-0.0231934,0.0117615,
5876,-0.0201416,0.0117737,
5878,-0.00976563,0.0118408,
5880,-0.00793457,0.011908,
5882,-0.000610352,0.0119141,
5884,-0.012207,0.0119202,
5886,0.00549316,0.0118713,
5888,-0.00793457,0.0117371,
5890,-0.0195313,0.0115967,
5892,-0.012207,0.0116394,
5894,-0.0518799,0.0121033,
5896,-0.0201416,0.0121399,
5898,-0.0354004,0.0123901,
5900,-0.032959,0.0126038,
5902,-0.0366211,0.0128113,
5904,-0.0311279,0.0129089,
5906,-0.0476074,0.0131592,
5908,-0.0195313,0.0133057,
5910,-0.00488281,0.0132751,
5912,-0.012207,0.0133301,
5914,-0.0177002,0.0134277,
5916,-0.0384521,0.0137451,
5918,-0.0213623,0.0137939,
5920,-0.0158691,0.0137451,
5922,-0.0213623,0.0137329,
5924,-0.0152588,0.0138245,
5926,-0.0189209,0.0139282,
5928,-0.0128174,0.0140381,
5930,-0.00976563,0.0140381,
5932,-0.0164795,0.0138367,
5934,-0.0140381,0.0138489,
5936,-0.00915527,0.0137024,
5938,-0.0158691,0.0135437,
5940,-0.00732422,0.0134521,
5942,-0.0189209,0.0134888,
5944,-0.0158691,0.0133728,
5946,-0.0134277,0.0133667,
5948,-0.00732422,0.0133362,
5950,-0.0012207,0.0132507,
5952,-0.0115967,0.0132935,
5954,0.00366211,0.0131653,
5956,0.00244141,0.0131409,
5958,0.00427246,0.0131836,
5960,-0.012207,0.0131958,
5962,0.0146484,0.0132446,
5964,0.0213623,0.0133972,
5966,0.00854492,0.0134094,
5968,-0.0421143,0.0137939,
5970,-0.00183105,0.0137878,
5972,0.012207,0.0138672,
5974,-0.00244141,0.0138672,
5976,-0.0140381,0.0139465,
5978,-0.0109863,0.0140015,
5980,0.00671387,0.0139832,
5982,0.00366211,0.0139954,
5984,0.00976563,0.0140137,
5986,0.0219727,0.0141541,
5988,0.00610352,0.0141357,
5990,0.00305176,0.0140076,
5992,0.00305176,0.0138367,
5994,0.00732422,0.0138123,
5996,0.00671387,0.0137939,
5998,0.000610352,0.0137207,
6000,-0.00793457,0.0137024,
6002,0.00915527,0.0136719,
6004,0.00183105,0.0136108,
6006,-0.010376,0.0135498,
6008,0.0109863,0.0135986,
6010,-0.0012207,0.0134094,
6012,-0.00244141,0.0132874,
6014,-0.00610352,0.013269,
6016,-0.0158691,0.0132629,
6018,-0.00610352,0.0132385,
6020,-0.00488281,0.0131836,
6022,-0.00976563,0.013147,
6024,0.0012207,0.0130981,
6026,-0.0152588,0.0131104,
6028,-0.012207,0.0131042,
6030,-0.00549316,0.0130676,
6032,-0.00915527,0.0130005,
6034,-0.022583,0.0131531,
6036,-0.0128174,0.0131592,
6038,-0.0109863,0.013147,
6040,-0.0140381,0.0131775,
6042,-0.00183105,0.0130798,
6044,-0.012207,0.0131592,
6046,-0.022583,0.0132507,
6048,-0.0256348,0.0134766,
6050,-0.0164795,0.0134399,
6052,-0.0189209,0.0134827,
6054,-0.0195313,0.0135864,
6056,-0.0341797,0.0137207,
6058,-0.0280762,0.0138611,
6060,-0.0177002,0.0139771,
6062,-0.020752,0.014093,
6064,-0.00671387,0.0140259,
6066,-0.0231934,0.0139771,
6068,-0.00732422,0.0140076,
6070,-0.0115967,0.0140747,
6072,-0.0164795,0.0140747,
6074,-0.00610352,0.0139038,
6076,-0.0115967,0.0138184,
6078,-0.0164795,0.0138855,
6080,-0.0177002,0.0139832,
6082,-0.0183105,0.0141602,
6084,-0.0134277,0.0141724,
6086,-0.012207,0.0142395,
6088,-0.0195313,0.0143555,
6090,-0.0201416,0.0143616,
6092,-0.0201416,0.0144409,
6094,-0.0115967,0.0140381,
6096,-0.0128174,0.0139648,
6098,-0.0134277,0.0137451,
6100,-0.0152588,0.0135681,
6102,-0.0146484,0.0133484,
6104,-0.0140381,0.0131775,
6106,-0.0152588,0.012854,
6108,-0.00976563,0.0127563,
6110,-0.012207,0.0128296,
6112,-0.0134277,0.0128418,
6114,-0.00610352,0.0127258,
6116,-0.0189209,0.0125305,
6118,-0.00793457,0.0123962,
6120,-0.00366211,0.0122742,
6122,-0.00793457,0.0121399,
6124,-0.00488281,0.0120361,
6126,-0.0115967,0.0119629,
6128,-0.00915527,0.0119263,
6130,-0.00549316,0.0118835,
6132,-0.0134277,0.011853,
6134,-0.00305176,0.0117432,
6136,-0.0115967,0.0117676,
6138,-0.0152588,0.0117615,
6140,-0.00793457,0.0117676,
6142,-0.0134277,0.0117126,
6144,-0.00671387,0.0116211,
6146,-0.00549316,0.0115417,
6148,-0.00671387,0.0115356,
6150,-0.020752,0.011731,
6152,-0.00488281,0.0116638,
6154,-0.00610352,0.0116882,
6156,-0.020752,0.0118713,
6158,-0.00427246,0.0118713,
6160,-0.0158691,0.011908,
6162,-0.0128174,0.0118896,
6164,-0.00610352,0.0117371,
6166,-0.00305176,0.0116821,
6168,0.0146484,0.0114075,
6170,0.0140381,0.0115295,
6172,-0.0164795,0.0115723,
6174,-0.0109863,0.0116577,
6176,-0.012207,0.0116394,
6178,0.00305176,0.0115601,
6180,-0.0146484,0.0116394,
6182,-0.0256348,0.0118591,
6184,-0.0360107,0.0121216,
6186,-0.0195313,0.0120972,
6188,-0.0268555,0.0123047,
6190,-0.0128174,0.0124023,
6192,-0.0189209,0.012561,
6194,-0.0152588,0.0126404,
6196,-0.0109863,0.0126831,
6198,-0.0134277,0.0128113,
6200,-0.012207,0.012854,
6202,-0.0115967,0.0128784,
6204,-0.0109863,0.01297,
6206,-0.0128174,0.0129944,
6208,-0.00793457,0.0129639,
6210,-0.0134277,0.0130859,
6212,-0.0128174,0.0131897,
6214,-0.00610352,0.0131897,
6216,-0.0146484,0.0131775,
6218,-0.00732422,0.0131897,
6220,-0.00732422,0.0132141,
6222,-0.00915527,0.013208,
6224,-0.00305176,0.0132263,
6226,-0.0109863,0.0131836,
6228,-0.00915527,0.0131531,
6230,-0.00610352,0.0131592,
6232,-0.0128174,0.0131958,
6234,-0.00488281,0.0130188,
6236,-0.0109863,0.0130005,
6238,-0.00671387,0.0129578,
6240,-0.00305176,0.0128479,
6242,-0.0146484,0.0129761,
6244,-0.010376,0.0129578,
6246,-0.010376,0.0128357,
6248,-0.00183105,0.0125977,
6250,-0.0140381,0.0125732,
6252,-0.00915527,0.0124756,
6254,-0.0213623,0.0124939,
6256,-0.0158691,0.0123108,
6258,-0.00427246,0.0120728,
6260,-0.010376,0.0119995,
6262,-0.00488281,0.0118408,
6264,-0.00305176,0.0118042,
6266,-0.0134277,0.0117065,
6268,-0.0183105,0.0118164,
6270,-0.00427246,0.0117432,
6272,-0.00610352,0.0116394,
6274,-0.0158691,0.0117371,
6276,-0.0250244,0.0118713,
6278,-0.0219727,0.0119263,
6280,-0.0152588,0.0119019,
6282,-0.0195313,0.0119141,
6284,-0.00854492,0.0118652,
6286,-0.0183105,0.0119263,
6288,-0.010376,0.0118347,
6290,-0.00854492,0.0117188,
6292,-0.00976563,0.011615,
6294,0.00488281,0.0115479,
6296,-0.0183105,0.0116028,
6298,-0.00366211,0.0115051,
6300,-0.0140381,0.0114929,
6302,-0.00915527,0.011438,
6304,-0.0158691,0.0114563,
6306,-0.0158691,0.0114624,
6308,-0.0213623,0.0115784,
6310,-0.0158691,0.011615,
6312,-0.0158691,0.0116394,
6314,-0.0128174,0.0117065,
6316,-0.0170898,0.0116882,
6318,-0.012207,0.011731,
6320,-0.00854492,0.0117798,
6322,-0.00915527,0.011792,
6324,-0.00732422,0.0118164,
6326,-0.0164795,0.0118652,
6328,-0.0152588,0.0119263,
6330,-0.00549316,0.0119263,
6332,-0.0164795,0.0119568,
6334,-0.012207,0.0120483,
6336,-0.0115967,0.0120483,
6338,-0.0170898,0.0120667,
6340,-0.00732422,0.0120605,
6342,-0.00366211,0.0119629,
6344,-0.0183105,0.0120789,
6346,-0.000610352,0.01203,
6348,-0.00549316,0.0120178,
6350,-0.022583,0.0120361,
6352,-0.00366211,0.0120239,
6354,-0.012207,0.012085,
6356,-0.0213623,0.0120911,
6358,-0.00610352,0.0121094,
6360,-0.010376,0.0120544,
6362,-0.0146484,0.0120728,
6364,0.00427246,0.0120544,
6366,0.0012207,0.0120361,
6368,-0.00366211,0.0119263,
6370,-0.0183105,0.011969,
6372,-0.0134277,0.0119385,
6374,-0.000610352,0.0118347,
6376,-0.0164795,0.0118774,
6378,-0.0262451,0.0121094,
6380,-0.0219727,0.0121826,
6382,-0.0250244,0.0121765,
6384,-0.0158691,0.0119751,
6386,-0.0146484,0.0119263,
6388,-0.010376,0.0117615,
6390,-0.00671387,0.0117004,
6392,-0.00732422,0.0115845,
6394,-0.0109863,0.0115417,
6396,-0.00854492,0.0115173,
6398,-0.00976563,0.0114807,
6400,-0.012207,0.0114807,
6402,-0.010376,0.0114685,
6404,-0.0109863,0.0114685,
6406,-0.0146484,0.0114868,
6408,-0.00549316,0.0114624,
6410,-0.0140381,0.0114685,
6412,-0.0115967,0.0114563,
6414,-0.00732422,0.0114685,
6416,-0.0128174,0.0114502,
6418,-0.00549316,0.0114319,
6420,-0.00854492,0.0114441,
6422,-0.00549316,0.0114075,
6424,-0.00427246,0.0114197,
6426,-0.0140381,0.0114502,
6428,-0.010376,0.0114624,
6430,-0.00488281,0.0114502,
6432,-0.00427246,0.0113647,
6434,0.000610352,0.011322,
6436,0,0.0112122,
6438,-0.012207,0.0112671,
6440,-0.010376,0.0113403,
6442,-0.0012207,0.0112061,
6444,-0.010376,0.0112061,
6446,-0.00793457,0.0111816,
6448,-0.00976563,0.011261,
6450,-0.0158691,0.0112793,
6452,-0.0164795,0.0113525,
6454,-0.0128174,0.0112671,
6456,-0.012207,0.0112305,
6458,-0.00671387,0.0112549,
6460,-0.0109863,0.011261,
6462,-0.00854492,0.0112976,
6464,-0.00671387,0.0113342,
6466,-0.020752,0.0114075,
6468,0.0128174,0.0113525,
6470,-0.00976563,0.0114075,
6472,-0.0134277,0.0114807,
6474,0.00183105,0.0113403,
6476,-0.0140381,0.0112305,
6478,-0.00732422,0.011084,
6480,-0.00732422,0.0110046,
6482,-0.00671387,0.0108765,
6484,-0.0109863,0.0109009,
6486,-0.010376,0.0108215,
6488,-0.0109863,0.0108276,
6490,-0.00488281,0.010791,
6492,-0.010376,0.0107971,
6494,-0.00732422,0.0108215,
6496,-0.00671387,0.0107056,
6498,-0.00549316,0.0107239,
6500,-0.00915527,0.010675,
6502,-0.00915527,0.010675,
6504,-0.00793457,0.0105957,
6506,-0.010376,0.0105408,
6508,-0.00488281,0.010376,
6510,-0.010376,0.010321,
6512,-0.00915527,0.0102539,
6514,-0.00488281,0.0101746,
6516,-0.0146484,0.0101501,
6518,0.00244141,0.0100525,
6520,-0.00793457,0.0100464,
6522,0.00671387,0.010022,
6524,0.00915527,0.0100403,
6526,-0.00610352,0.00993652,
6528,-0.0195313,0.00997925,
6530,-0.00183105,0.00994263,
6532,0.000610352,0.00978394,
6534,-0.00244141,0.00968628,
6536,-0.0164795,0.00973511,
6538,-0.0158691,0.0097229,
6540,-0.0128174,0.00977783,
6542,-0.00244141,0.00976563,
6544,-0.0109863,0.00969238,
6546,-0.0219727,0.00990601,
6548,-0.00427246,0.0098938,
6550,-0.012207,0.00979004,
6552,-0.0195313,0.00994873,
6554,-0.0189209,0.0100159,
6556,-0.0189209,0.00999146,
6558,-0.00976563,0.0100281,
6560,-0.0146484,0.0100708,
6562,0.00793457,0.0100037,
6564,0.0158691,0.0101196,
6566,0.00244141,0.0101318,
6568,-0.0012207,0.0101074,
6570,-0.0152588,0.0100769,
6572,-0.00732422,0.0100159,
6574,0.0158691,0.0101685,
6576,-0.0189209,0.0101929,
6578,-0.0311279,0.0102417,
6580,-0.0238037,0.01026,
6582,-0.022583,0.0102356,
6584,-0.0158691,0.0102356,
6586,-0.0164795,0.0102539,
6588,-0.0152588,0.0103027,
6590,-0.0115967,0.0103516,
6592,-0.012207,0.0104004,
6594,-0.00793457,0.0103699,
6596,-0.00793457,0.0103638,
6598,-0.00610352,0.0103271,
6600,-0.00793457,0.0102844,
6602,-0.00671387,0.0102478,
6604,-0.00671387,0.0102051,
6606,-0.00854492,0.010144,
6608,-0.00305176,0.0101196,
6610,-0.00915527,0.0100708,
6612,-0.00366211,0.00999146,
6614,-0.00610352,0.00997925,
6616,-0.0128174,0.00997925,
6618,-0.00549316,0.00997925,
6620,0.00183105,0.00991211,
6622,-0.00793457,0.00993652,
6624,-0.00305176,0.00992432,
6626,-0.00732422,0.00985718,
6628,-0.00732422,0.00982666,
6630,-0.00305176,0.00980835,
6632,-0.00610352,0.00982666,
6634,0.00671387,0.0098877,
6636,-0.0012207,0.0098999,
6638,0.00183105,0.00979614,
6640,-0.0213623,0.00990601,
6642,0.00366211,0.00993042,
6644,0.00549316,0.00988159,
6646,-0.0170898,0.00997314,
6648,-0.012207,0.00999756,
6650,-0.010376,0.00994263,
6652,-0.0140381,0.00991821,
6654,-0.00976563,0.0098877,
6656,-0.0134277,0.0098999,
6658,-0.00183105,0.00985107,
6660,-0.0140381,0.00988159,
6662,-0.0109863,0.00990601,
6664,0.00976563,0.00993652,
6666,-0.0152588,0.00988159,
6668,-0.00915527,0.00984497,
6670,-0.0152588,0.0098999,
6672,-0.00854492,0.00985107,
6674,-0.00549316,0.0098877,
6676,-0.0158691,0.00990601,
6678,-0.0115967,0.00994873,
6680,-0.0134277,0.0100098,
6682,-0.012207,0.0100647,
6684,0.00305176,0.00998535,
6686,-0.0170898,0.0100525,
6688,0,0.00994263,
6690,-0.0140381,0.0100342,
6692,-0.00976563,0.0100281,
6694,-0.00305176,0.00998535,
6696,-0.00488281,0.00996704,
6698,-0.00854492,0.00999756,
6700,-0.00976563,0.0100037,
6702,-0.00488281,0.00996094,
6704,-0.00793457,0.00996094,
6706,-0.00610352,0.00991821,
6708,-0.00610352,0.00993042,
6710,-0.012207,0.00994873,
6712,-0.00488281,0.00990601,
6714,-0.00549316,0.00991211,
6716,-0.00915527,0.00985718,
6718,0.000610352,0.00983887,
6720,0.0012207,0.00977173,
6722,-0.00549316,0.00975952,
6724,0.00732422,0.00974121,
6726,-0.00976563,0.00977783,
6728,-0.00854492,0.00966797,
6730,0.00427246,0.00969238,
6732,-0.000610352,0.00969238,
6734,0.00366211,0.00970459,
6736,-0.0189209,0.009729,
6738,-0.0109863,0.00968018,
6740,-0.00915527,0.00964355,
6742,-0.00854492,0.00970459,
6744,-0.00732422,0.00966797,
6746,-0.00915527,0.00953979,
6748,-0.00183105,0.00951538,
6750,-0.0219727,0.00961304,
6752,-0.00427246,0.00946045,
6754,0.00183105,0.00928955,
6756,-0.00427246,0.00914307,
6758,-0.00915527,0.00913696,
6760,-0.00671387,0.00905762,
6762,-0.0164795,0.00914307,
6764,-0.020752,0.00919189,
6766,-0.010376,0.00927124,
6768,-0.010376,0.00936279,
6770,-0.0238037,0.00944824,
6772,-0.0140381,0.00951538,
6774,-0.0109863,0.00946655,
6776,-0.0164795,0.00944214,
6778,-0.00427246,0.00917358,
6780,-0.00976563,0.0090332,
6782,-0.010376,0.00891113,
6784,-0.00305176,0.00878296,
6786,-0.00976563,0.00871582,
6788,-0.010376,0.00866699,
6790,-0.00915527,0.00864258,
6792,-0.012207,0.00864258,
6794,-0.00366211,0.00859985,
6796,-0.00549316,0.00857544,
6798,-0.00732422,0.00858765,
6800,-0.00671387,0.00857544,
6802,-0.00671387,0.00857544,
6804,-0.00427246,0.00855103,
6806,-0.00915527,0.00855713,
6808,-0.00488281,0.00857544,
6810,-0.00854492,0.00856934,
6812,-0.00366211,0.00856934,
6814,-0.00488281,0.00855713,
6816,-0.010376,0.00853271,
6818,-0.00427246,0.00852051,
6820,-0.000610352,0.0085083,
6822,-0.00427246,0.00847168,
6824,-0.00610352,0.0085022,
6826,-0.00610352,0.00848999,
6828,-0.00854492,0.0085022,
6830,-0.00732422,0.00854492,
6832,0.000610352,0.00848999,
6834,-0.012207,0.00854492,
6836,-0.0115967,0.00864868,
6838,-0.00305176,0.00866089,
6840,0,0.00844727,
6842,-0.00305176,0.00844116,
6844,-0.0109863,0.00849609,
6846,0.00427246,0.00836792,
6848,-0.00366211,0.00828247,
6850,-0.0146484,0.0083252,
6852,0.000610352,0.00819092,
6854,-0.012207,0.00821533,
6856,-0.0146484,0.00822754,
6858,-0.00976563,0.00830688,
6860,-0.0109863,0.00827637,
6862,-0.0134277,0.00830078,
6864,-0.0158691,0.00836182,
6866,-0.0140381,0.00834961,
6868,-0.00183105,0.00827637,
6870,0.00793457,0.00820313,
6872,-0.000610352,0.00812378,
6874,-0.0115967,0.00818481,
6876,-0.00915527,0.00811768,
6878,-0.00610352,0.00806274,
6880,-0.00244141,0.00795288,
6882,-0.0170898,0.00800171,
6884,-0.00976563,0.00806885,
6886,-0.0170898,0.00806885,
6888,-0.0140381,0.00820923,
6890,-0.00854492,0.0081543,
6892,-0.0152588,0.00820923,
6894,-0.00488281,0.00822754,
6896,-0.00488281,0.00822754,
6898,-0.00488281,0.00819092,
6900,-0.010376,0.00819702,
6902,-0.00305176,0.00817871,
6904,-0.00976563,0.00819702,
6906,-0.00854492,0.00822144,
6908,0,0.0081604,
6910,-0.00732422,0.00811157,
6912,-0.00488281,0.00811157,
6914,-0.00427246,0.00809937,
6916,-0.00915527,0.00809937,
6918,-0.00183105,0.00811157,
6920,-0.00244141,0.00812378,
6922,-0.00671387,0.00813599,
6924,-0.00244141,0.00808716,
6926,-0.00915527,0.00808105,
6928,-0.00610352,0.00805664,
6930,-0.00244141,0.00803833,
6932,-0.00915527,0.00812378,
6934,-0.00671387,0.0081543,
6936,-0.00732422,0.00803833,
6938,-0.00488281,0.00797729,
6940,-0.0115967,0.00800171,
6942,-0.00671387,0.0079834,
6944,-0.00488281,0.00795898,
6946,-0.00427246,0.00791016,
6948,-0.00488281,0.00794067,
6950,-0.00854492,0.0078064,
6952,-0.00854492,0.00784912,
6954,0.00305176,0.00786133,
6956,-0.0158691,0.00797729,
6958,0.000610352,0.00789185,
6960,-0.00671387,0.00789185,
6962,-0.0109863,0.00783691,
6964,-0.00610352,0.00769043,
6966,-0.0115967,0.00770264,
6968,-0.00549316,0.00765381,
6970,-0.00488281,0.0074646,
6972,-0.00549316,0.00737915,
6974,-0.00305176,0.0072998,
6976,-0.00915527,0.00722656,
6978,-0.00549316,0.00723877,
6980,-0.00366211,0.00717773,
6982,-0.00244141,0.00709839,
6984,-0.00671387,0.00713501,
6986,-0.00610352,0.00709839,
6988,-0.0109863,0.00710449,
6990,-0.00610352,0.00707397,
6992,-0.00610352,0.00701294,
6994,-0.00183105,0.00699463,
6996,0.00366211,0.00697632,
6998,-0.0109863,0.00701294,
7000,-0.00610352,0.00700684,
7002,-0.00427246,0.00698242,
7004,0.0012207,0.0069519,
7006,0.000610352,0.00686646,
7008,0.00915527,0.00690918,
7010,0.00732422,0.00689697,
7012,-0.000610352,0.00686646,
7014,0.00244141,0.00684204,
7016,-0.0201416,0.0069397,
7018,0.00793457,0.00697632,
7020,-0.00305176,0.00700073,
7022,-0.0189209,0.00714722,
7024,-0.0177002,0.00726318,
7026,-0.0213623,0.00741577,
7028,-0.0128174,0.0074585,
7030,-0.0109863,0.00749512,
7032,-0.00915527,0.00758057,
7034,-0.00366211,0.00749512,
7036,-0.00549316,0.00743408,
7038,-0.00793457,0.00748291,
7040,0.00854492,0.00756836,
7042,-0.010376,0.0076416,
7044,-0.0109863,0.0076416,
7046,-0.00610352,0.00765991,
7048,-0.00549316,0.00767822,
7050,-0.00854492,0.00761719,
7052,-0.010376,0.00771484,
7054,-0.0140381,0.00773315,
7056,-0.010376,0.00769043,
7058,-0.00671387,0.00765991,
7060,-0.0177002,0.00772705,
7062,0,0.00759277,
7064,-0.00854492,0.00751953,
7066,-0.010376,0.00748291,
7068,-0.00366211,0.00750122,
7070,-0.00854492,0.00750732,
7072,-0.00732422,0.00757446,
7074,-0.000610352,0.0074646,
7076,-0.0146484,0.00751953,
7078,-0.00305176,0.00748901,
7080,-0.00549316,0.00751953,
7082,-0.010376,0.00745239,
7084,-0.00305176,0.00738525,
7086,-0.00610352,0.00727539,
7088,-0.00732422,0.00720825,
7090,-0.00671387,0.00718994,
7092,-0.00793457,0.0071167,
7094,0.00427246,0.0071106,
7096,-0.0146484,0.00720825,
7098,-0.0012207,0.00717163,
7100,-0.00793457,0.00714722,
7102,-0.00549316,0.00717163,
7104,-0.00610352,0.00713501,
7106,-0.0109863,0.00715942,
7108,-0.00366211,0.00719604,
7110,-0.010376,0.00722656,
7112,-0.0012207,0.00718994,
7114,-0.0115967,0.00726318,
7116,-0.0115967,0.0072876,
7118,0.00183105,0.0072876,
7120,0.00305176,0.0072937,
7122,0.00671387,0.0072937,
7124,0.00732422,0.00734253,
7126,-0.0195313,0.00744629,
7128,-0.00610352,0.00744629,
7130,0.010376,0.00752563,
7132,-0.00976563,0.00753174,
7134,-0.010376,0.00756836,
7136,-0.0256348,0.00775146,
7138,-0.0158691,0.00786133,
7140,-0.00305176,0.00777588,
7142,-0.00488281,0.00775757,
7144,-0.0140381,0.00784912,
7146,-0.0128174,0.00793457,
7148,-0.0177002,0.00806274,
7150,-0.00671387,0.00804443,
7152,-0.00305176,0.0079895,
7154,-0.0128174,0.00808716,
7156,-0.0164795,0.00809326,
7158,0.000610352,0.00809326,
7160,-0.0250244,0.00827637,
7162,-0.012207,0.00828857,
7164,0.0012207,0.00823975,
7166,-0.0170898,0.00829468,
7168,-0.00610352,0.00830078,
7170,-0.0164795,0.00841675,
7172,-0.012207,0.00848389,
7174,-0.010376,0.00855713,
7176,-0.0152588,0.00861816,
7178,-0.00915527,0.00865479,
7180,-0.00671387,0.0086853,
7182,-0.0146484,0.00880737,
7184,-0.00732422,0.00881348,
7186,-0.00854492,0.00883789,
7188,-0.0115967,0.00884399,
7190,-0.00793457,0.0088623,
7192,-0.010376,0.00890503,
7194,-0.00610352,0.00894775,
7196,-0.0128174,0.00903931,
7198,-0.00488281,0.00897827,
7200,-0.00793457,0.00899658,
7202,0.000610352,0.00895996,
7204,-0.00488281,0.00899658,
7206,-0.010376,0.00909424,
7208,-0.00488281,0.00905151,
7210,-0.00305176,0.00900879,
7212,-0.00915527,0.00909424,
7214,-0.00671387,0.00913696,
7216,-0.0140381,0.00907593,
7218,-0.0128174,0.00912476,
7220,-0.00549316,0.00914917,
7222,-0.00976563,0.00905762,
7224,0.00976563,0.00897827,
7226,-0.012207,0.00888672,
7228,-0.0012207,0.00877075,
7230,-0.00183105,0.0086792,
7232,-0.00244141,0.00861206,
7234,0,0.00857544,
7236,-0.00244141,0.00854492,
7238,-0.00610352,0.00852661,
7240,-0.0189209,0.00863037,
7242,-0.0115967,0.00864258,
7244,-0.00671387,0.00859985,
7246,-0.00793457,0.00861816,
7248,-0.00610352,0.00862427,
7250,-0.0189209,0.00872803,
7252,-0.0109863,0.00873413,
7254,-0.00610352,0.00865479,
7256,-0.0109863,0.00866089,
7258,-0.00366211,0.00863037,
7260,-0.0115967,0.00856934,
7262,-0.010376,0.0086731,
7264,-0.0012207,0.00859985,
7266,-0.0115967,0.00861206,
7268,-0.00366211,0.00861206,
7270,-0.00244141,0.00855103,
7272,-0.00732422,0.00855103,
7274,-0.00244141,0.00856934,
7276,-0.00671387,0.00848999,
7278,-0.00244141,0.00848389,
7280,-0.00854492,0.0085144,
7282,-0.00610352,0.00847168,
7284,0,0.00844116,
7286,-0.00366211,0.00841675,
7288,-0.0109863,0.00845337,
7290,-0.00732422,0.00845947,
7292,-0.00427246,0.00842285,
7294,-0.00488281,0.00842896,
7296,-0.00610352,0.00834351,
7298,-0.00671387,0.00839844,
7300,-0.00549316,0.00837402,
7302,-0.00549316,0.00837402,
7304,-0.00610352,0.00837402,
7306,-0.00732422,0.0083374,
7308,-0.000610352,0.00830688,
7310,-0.00488281,0.00825195,
7312,-0.00549316,0.00829468,
7314,-0.00549316,0.00823364,
7316,-0.00976563,0.00821533,
7318,-0.0012207,0.00820923,
7320,0.0012207,0.00819092,
7322,-0.00976563,0.00822144,
7324,-0.00183105,0.0081665,
7326,-0.010376,0.00807495,
7328,-0.00549316,0.00806885,
7330,-0.00183105,0.0079834,
7332,-0.00244141,0.00791016,
7334,-0.00549316,0.00786133,
7336,-0.00915527,0.00769653,
7338,-0.00854492,0.00762329,
7340,-0.00549316,0.00764771,
7342,-0.00732422,0.00767212,
7344,-0.00488281,0.00758057,
7346,-0.00549316,0.00750732,
7348,-0.00610352,0.00739136,
7350,-0.00793457,0.00740356,
7352,-0.00610352,0.00743408,
7354,-0.00183105,0.00732422,
7356,-0.00793457,0.00723877,
7358,0,0.00723267,
7360,-0.00244141,0.00700684,
7362,-0.000610352,0.00689087,
7364,-0.0140381,0.00701904,
7366,-0.00915527,0.0069397,
7368,0.00366211,0.00691528,
7370,-0.012207,0.00687256,
7372,-0.00915527,0.00684204,
7374,-0.00610352,0.00679932,
7376,-0.0140381,0.00678711,
7378,-0.0177002,0.00687256,
7380,0.00854492,0.00689087,
7382,-0.0128174,0.00687256,
7384,-0.0177002,0.00697632,
7386,-0.000610352,0.00689697,
7388,-0.0152588,0.00693359,
7390,-0.00976563,0.0069519,
7392,-0.0109863,0.00695801,
7394,-0.00854492,0.00698242,
7396,-0.012207,0.00697632,
7398,-0.00671387,0.00699463,
7400,-0.00915527,0.00700684,
7402,-0.00610352,0.00706177,
7404,-0.0115967,0.00712891,
7406,-0.00854492,0.0071106,
7408,-0.00244141,0.00708618,
7410,-0.00976563,0.00715332,
7412,-0.00183105,0.00708008,
7414,0.00244141,0.00703735,
7416,0.00671387,0.00696411,
7418,0.0262451,0.00709839,
7420,0.0134277,0.00717773,
7422,-0.00366211,0.0071167,
7424,0.00427246,0.00706177,
7426,-0.00671387,0.00700684,
7428,-0.0146484,0.00714111,
7430,-0.0213623,0.00733643,
7432,-0.0268555,0.00758057,
7434,-0.0323486,0.00790405,
7436,-0.03479,0.00822754,
7438,-0.0317383,0.00848389,
7440,-0.0219727,0.0085144,
7442,-0.00671387,0.00846558,
7444,-0.0170898,0.00856934,
7446,-0.00915527,0.00858154,
7448,-0.00427246,0.00856323,
7450,-0.010376,0.00847778,
7452,-0.00793457,0.00844727,
7454,-0.00732422,0.00845947,
7456,-0.00915527,0.00844116,
7458,-0.00366211,0.00844116,
7460,-0.00976563,0.00842285,
7462,-0.0109863,0.00842896,
7464,-0.00549316,0.00847168,
7466,-0.012207,0.00847778,
7468,-0.00427246,0.00848389,
7470,-0.00549316,0.0085144,
7472,-0.00915527,0.00853271,
7474,-0.00244141,0.00853271,
7476,-0.0109863,0.00857544,
7478,-0.00183105,0.00856934,
7480,-0.00793457,0.00856323,
7482,-0.00732422,0.00857544,
7484,0.00366211,0.00861206,
7486,-0.00976563,0.0086731,
7488,-0.0140381,0.00870361,
7490,-0.00732422,0.00870361,
7492,-0.00427246,0.00870361,
7494,-0.00732422,0.00872803,
7496,-0.00366211,0.00870361,
7498,-0.00427246,0.0086792,
7500,-0.0115967,0.00874023,
7502,-0.00732422,0.00875854,
7504,-0.00305176,0.00872803,
7506,-0.00915527,0.00874634,
7508,-0.00732422,0.00881348,
7510,-0.00549316,0.00881958,
7512,-0.0177002,0.00894165,
7514,-0.000610352,0.00889282,
7516,-0.0177002,0.00897217,
7518,-0.0012207,0.00897217,
7520,-0.00244141,0.00898438,
7522,0.00183105,0.00890503,
7524,0.0170898,0.00905762,
7526,-0.0128174,0.00908203,
7528,-0.00427246,0.00906982,
7530,-0.00305176,0.00908203,
7532,-0.000610352,0.00906372,
7534,-0.012207,0.00913086,
7536,-0.0152588,0.00919189,
7538,-0.0134277,0.00924072,
7540,-0.0177002,0.00936279,
7542,-0.012207,0.00941162,
7544,-0.0128174,0.00949097,
7546,-0.0152588,0.00958862,
7548,-0.00305176,0.00955811,
7550,-0.00732422,0.009552,
7552,-0.00549316,0.0095459,
7554,-0.00610352,0.00958862,
7556,-0.0158691,0.00966797,
7558,-0.000610352,0.00967407,
7560,-0.0128174,0.00977783,
7562,-0.00793457,0.00985107,
7564,-0.00427246,0.00975342,
7566,-0.0170898,0.00983276,
7568,-0.00793457,0.00987549,
7570,-0.00549316,0.00980835,
7572,-0.00793457,0.00979614,
7574,-0.00732422,0.00980835,
7576,-0.00976563,0.00976563,
7578,-0.00610352,0.00964966,
7580,-0.00366211,0.00960083,
7582,-0.00793457,0.009552,
7584,-0.00366211,0.00941162,
7586,-0.010376,0.00950928,
7588,-0.00305176,0.00938721,
7590,-0.00976563,0.00938721,
7592,-0.00549316,0.00933228,
7594,-0.00427246,0.00928955,
7596,-0.00549316,0.00922241,
7598,-0.00427246,0.009198,
7600,-0.00915527,0.009198,
7602,-0.00427246,0.00917969,
7604,-0.00610352,0.00912476,
7606,-0.00793457,0.00911865,
7608,-0.0012207,0.00910645,
7610,-0.00976563,0.00910645,
7612,-0.00793457,0.00916748,
7614,-0.00244141,0.00916748,
7616,-0.00427246,0.00914307,
7618,0.00488281,0.00892944,
7620,-0.012207,0.00891724,
7622,-0.00915527,0.00897217,
7624,-0.00366211,0.00896606,
7626,-0.0012207,0.00891113,
7628,-0.0146484,0.00891113,
7630,-0.010376,0.00880127,
7632,-0.00671387,0.00859985,
7634,-0.0115967,0.00839233,
7636,-0.0140381,0.00818481,
7638,-0.00976563,0.00796509,
7640,-0.012207,0.00786743,
7642,-0.0012207,0.0078125,
7644,-0.0152588,0.00779419,
7646,-0.00793457,0.00778198,
7648,-0.00183105,0.00775757,
7650,-0.0109863,0.00776367,
7652,-0.00549316,0.00773926,
7654,-0.00854492,0.00775146,
7656,0.00732422,0.00773315,
7658,0.00915527,0.00778809,
7660,-0.0012207,0.00770264,
7662,-0.020752,0.00780029,
7664,-0.00305176,0.00777588,
7666,-0.010376,0.00775757,
7668,-0.0134277,0.00784912,
7670,-0.0128174,0.00792236,
7672,-0.020752,0.00803833,
7674,-0.022583,0.00823975,
7676,-0.020752,0.0083374,
7678,-0.0109863,0.00842896,
7680,-0.00915527,0.00844116,
7682,-0.00915527,0.00845947,
7684,-0.00488281,0.00847168,
7686,-0.0109863,0.00848389,
7688,-0.00793457,0.00842285,
7690,-0.00976563,0.00844727,
7692,-0.00854492,0.00848999,
7694,-0.00427246,0.00845947,
7696,-0.00732422,0.00849609,
7698,-0.00244141,0.00847778,
7700,-0.0109863,0.00847168,
7702,-0.00427246,0.00844116,
7704,-0.00244141,0.00843506,
7706,-0.00793457,0.00842285,
7708,-0.00183105,0.00836792,
7710,-0.00915527,0.00840454,
7712,-0.00976563,0.0083252,
7714,-0.00732422,0.00839233,
7716,-0.00976563,0.00831299,
7718,-0.00244141,0.0083252,
7720,-0.0146484,0.00844727,
7722,-0.010376,0.00853271,
7724,0,0.00836182,
7726,-0.00915527,0.0083252,
7728,-0.00671387,0.00834961,
7730,-0.0115967,0.00843506,
7732,-0.00854492,0.0085144,
7734,-0.00305176,0.00842285,
7736,-0.00549316,0.0083252,
7738,-0.00976563,0.00828857,
7740,-0.00854492,0.00819702,
7742,-0.00854492,0.0081604,
7744,0,0.00803223,
7746,-0.00793457,0.00795898,
7748,0.00366211,0.00796509,
7750,0.00366211,0.00792847,
7752,-0.00915527,0.00796509,
7754,-0.010376,0.00800781,
7756,-0.00427246,0.00789185,
7758,-0.00671387,0.00795288,
7760,-0.0158691,0.0079834,
7762,-0.0115967,0.00802002,
7764,-0.020752,0.00818481,
7766,-0.0177002,0.00819092,
7768,-0.00244141,0.00813599,
7770,-0.00244141,0.00810547,
7772,-0.00854492,0.00811157,
7774,-0.00732422,0.00811157,
7776,-0.0109863,0.00812378,
7778,-0.000610352,0.00806885,
7780,-0.010376,0.00813599,
7782,-0.0158691,0.00821533,
7784,-0.0146484,0.0083252,
7786,-0.012207,0.00834351,
7788,-0.0152588,0.00846558,
7790,-0.0109863,0.00847778,
7792,-0.00732422,0.00849609,
7794,-0.00732422,0.00852661,
7796,-0.00671387,0.00853882,
7798,-0.00366211,0.00853271,
7800,-0.00610352,0.0085022,
7802,-0.0115967,0.00857544,
7804,-0.00183105,0.00853271,
7806,-0.00732422,0.00852661,
7808,-0.00183105,0.00853271,
7810,-0.010376,0.00853882,
7812,-0.00732422,0.00853271,
7814,-0.00549316,0.00856323,
7816,-0.0115967,0.00863647,
7818,-0.00366211,0.00862427,
7820,-0.00427246,0.00854492,
7822,-0.00793457,0.00853271,
7824,-0.00183105,0.0085144,
7826,-0.010376,0.00860596,
7828,-0.00549316,0.0085144,
7830,-0.00244141,0.00843506,
7832,-0.00915527,0.00845947,
7834,-0.00427246,0.00838623,
7836,-0.00915527,0.0083374,
7838,-0.00732422,0.00831299,
7840,-0.0115967,0.00830688,
7842,0,0.00829468,
7844,-0.0115967,0.00825806,
7846,-0.000610352,0.00818481,
7848,-0.00183105,0.00818481,
7850,-0.00915527,0.0081665,
7852,-0.00671387,0.00817871,
7854,0.0012207,0.00810547,
7856,-0.00610352,0.00809326,
7858,0.00427246,0.00804443,
7860,-0.00244141,0.00805664,
7862,-0.0115967,0.00796509,
7864,0.0012207,0.00794678,
7866,-0.0134277,0.00797729,
7868,-0.00671387,0.00791016,
7870,-0.0170898,0.00795288,
7872,-0.0109863,0.00785522,
7874,-0.0128174,0.00775757,
7876,-0.0183105,0.00773315,
7878,-0.00610352,0.00768433,
7880,-0.00793457,0.00767212,
7882,-0.0189209,0.00776978,
7884,-0.00793457,0.00780029,
7886,-0.00366211,0.00772705,
7888,-0.0115967,0.00776367,
7890,-0.0146484,0.0078125,
7892,-0.00793457,0.0078064,
7894,-0.00549316,0.0078186,
7896,-0.0146484,0.00789185,
7898,-0.00793457,0.00794678,
7900,-0.0140381,0.00797729,
7902,-0.00305176,0.00796509,
7904,-0.00915527,0.00803223,
7906,-0.00732422,0.00802612,
7908,-0.00549316,0.00806274,
7910,-0.012207,0.00809326,
7912,-0.00793457,0.00807495,
7914,-0.00671387,0.00806885,
7916,-0.012207,0.00809326,
7918,-0.00488281,0.00811768,
7920,-0.00732422,0.00804443,
7922,0,0.00794067,
7924,-0.00183105,0.00795898,
7926,-0.00976563,0.00796509,
7928,0.00793457,0.00797729,
7930,-0.000610352,0.00786743,
7932,-0.0238037,0.00802002,
7934,0.00793457,0.00806885,
7936,0.0012207,0.00802612,
7938,-0.0170898,0.00809937,
7940,-0.00793457,0.00809326,
7942,-0.020752,0.00821533,
7944,-0.0134277,0.00834961,
7946,-0.0158691,0.00842896,
7948,-0.00610352,0.00845337,
7950,-0.0140381,0.00855713,
7952,-0.0219727,0.0086853,
7954,-0.012207,0.00870361,
7956,-0.010376,0.00876465,
7958,-0.00244141,0.00872192,
7960,-0.00427246,0.00860596,
7962,-0.00183105,0.0085083,
7964,0.00976563,0.00839844,
7966,-0.0384521,0.00860596,
7968,0.0012207,0.00859375,
7970,-0.00915527,0.00866089,
7972,-0.00793457,0.00865479,
7974,-0.022583,0.00880737,
7976,-0.0250244,0.00894775,
7978,-0.012207,0.00906372,
7980,-0.0195313,0.00915527,
7982,-0.00366211,0.0090332,
7984,-0.00976563,0.00898438,
7986,-0.0170898,0.0090332,
7988,-0.00183105,0.00889893,
7990,-0.0128174,0.00891724,
7992,-0.00244141,0.00886841,
7994,-0.0177002,0.00897217,
7996,-0.00488281,0.00895386,
7998,-0.00488281,0.00896606,
8000,-0.0115967,0.009021,
8002,-0.00793457,0.00898438,
8004,-0.0146484,0.00911255,
8006,-0.0109863,0.00914917,
8008,-0.00244141,0.00915527,
8010,-0.0158691,0.00921021,
8012,-0.0170898,0.00930786,
8014,-0.00854492,0.00933838,
8016,-0.0164795,0.00938721,
8018,-0.00671387,0.00941772,
8020,-0.0109863,0.00948486,
8022,-0.0115967,0.00952148,
8024,-0.00366211,0.00953979,
8026,-0.0146484,0.00958252,
8028,-0.0128174,0.00965576,
8030,-0.00244141,0.00965576,
8032,-0.00976563,0.00966187,
8034,-0.00915527,0.00971069,
8036,-0.0109863,0.009729,
8038,-0.00671387,0.0097229,
8040,-0.0109863,0.0097168,
8042,-0.00671387,0.00978394,
8044,-0.00793457,0.00974731,
8046,-0.00976563,0.00983887,
8048,-0.00427246,0.00986328,
8050,-0.00793457,0.00985107,
8052,-0.00610352,0.00984497,
8054,-0.00488281,0.00988159,
8056,-0.012207,0.00994263,
8058,-0.000610352,0.00990601,
8060,-0.0109863,0.00999146,
8062,-0.00915527,0.00996704,
8064,-0.00671387,0.010022,
8066,-0.0189209,0.0100769,
8068,-0.00549316,0.0100647,
8070,-0.00915527,0.00998535,
8072,-0.012207,0.00999756,
8074,-0.0115967,0.00998535,
8076,-0.0140381,0.00994263,
8078,-0.00183105,0.0098999,
8080,0.00366211,0.00985718,
8082,-0.010376,0.00977173,
8084,-0.0012207,0.00970459,
8086,-0.00427246,0.00971069,
8088,-0.0128174,0.0097229,
8090,0.000610352,0.00958252,
8092,-0.00854492,0.00958862,
8094,-0.00732422,0.00960693,
8096,-0.0244141,0.00970459,
8098,-0.0152588,0.00977783,
8100,-0.010376,0.00974121,
8102,-0.0109863,0.00982056,
8104,-0.0256348,0.00998535,
8106,-0.0140381,0.0100525,
8108,0.000610352,0.0100037,
8110,-0.0158691,0.0100403,
8112,-0.00854492,0.0100464,
8114,-0.00854492,0.0100647,
8116,-0.012207,0.0100647,
8118,-0.0109863,0.0101257,
8120,-0.00305176,0.010083,
8122,-0.00976563,0.0101807,
8124,-0.00915527,0.0102539,
8126,-0.0140381,0.0102966,
8128,-0.00732422,0.0102905,
8130,-0.00732422,0.0103577,
8132,-0.00549316,0.0101746,
8134,-0.00793457,0.0101746,
8136,-0.0115967,0.0102783,
8138,-0.00732422,0.0101807,
8140,-0.00915527,0.0101929,
8142,-0.00915527,0.0100769,
8144,-0.00854492,0.0100281,
8146,-0.00488281,0.00991821,
8148,-0.00915527,0.00994873,
8150,-0.010376,0.00991211,
8152,-0.00183105,0.00971069,
8154,-0.012207,0.00971069,
8156,-0.00549316,0.00966187,
8158,-0.00183105,0.00965576,
8160,-0.00671387,0.00968018,
8162,-0.010376,0.00976563,
8164,-0.00671387,0.00973511,
8166,-0.0115967,0.00946655,
8168,-0.00427246,0.00949707,
8170,-0.00854492,0.00949097,
8172,-0.00671387,0.00947876,
8174,-0.00915527,0.00934448,
8176,-0.0109863,0.0092041,
8178,-0.00488281,0.00913086,
8180,-0.00610352,0.00899658,
8182,-0.00793457,0.00903931,
8184,-0.00183105,0.00895996,
8186,-0.0140381,0.00892944,
8188,-0.00671387,0.00897827,
8190,-0.00915527,0.00894165,
8192,-0.00976563,0.00901489,
8194,-0.00671387,0.00890503,
8196,-0.00244141,0.00888062,
8198,0.0158691,0.00899048,
8200,0.0158691,0.0090332,
8202,-0.0201416,0.00915527,
8204,-0.0115967,0.00912476,
8206,-0.0140381,0.00915527,
8208,0.00793457,0.00921021,
8210,-0.0201416,0.00925293,
8212,-0.0317383,0.00939941,
8214,-0.0286865,0.00960083,
8216,-0.0286865,0.0097229,
8218,-0.0170898,0.00982666,
8220,-0.012207,0.00983887,
8222,-0.0109863,0.00983276,
8224,0.00244141,0.00982056,
8226,-0.00732422,0.00974731,
8228,0,0.00961914,
8230,0.00549316,0.00964966,
8232,-0.0201416,0.00975342,
8234,-0.00427246,0.00970459,
8236,-0.00549316,0.00964966,
8238,-0.012207,0.00970459,
8240,-0.0152588,0.00974731,
8242,-0.0128174,0.00980835,
8244,-0.0177002,0.00990601,
8246,-0.0115967,0.00992432,
8248,-0.00732422,0.00995483,
8250,-0.010376,0.00997925,
8252,-0.00854492,0.0100037,
8254,-0.0115967,0.0100708,
8256,-0.00732422,0.010022,
8258,-0.00244141,0.0100403,
8260,-0.0170898,0.0101013,
8262,-0.0109863,0.0101196,
8264,-0.010376,0.0101563,
8266,-0.0146484,0.0101135,
8268,-0.00732422,0.0101318,
8270,-0.010376,0.010144,
8272,-0.010376,0.0101257,
8274,-0.00671387,0.0100769,
8276,-0.012207,0.0100586,
8278,-0.00732422,0.0101135,
8280,-0.00671387,0.010144,
8282,-0.00976563,0.0101379,
8284,-0.0012207,0.0101379,
8286,-0.00549316,0.0101501,
8288,-0.010376,0.0101257,
8290,0.00915527,0.0102112,
8292,0.00366211,0.0101624,
8294,0.010376,0.0101929,
8296,-0.0189209,0.0101379,
8298,-0.0115967,0.0101013,
8300,-0.00610352,0.0100586,
8302,-0.00549316,0.0100037,
8304,-0.0244141,0.00999146,
8306,-0.0274658,0.0101257,
8308,-0.012207,0.0102417,
8310,-0.020752,0.0102905,
8312,-0.012207,0.0103271,
8314,-0.010376,0.0103455,
8316,-0.0109863,0.0103333,
8318,0.000610352,0.0102295,
8320,-0.0012207,0.0102112,
8322,-0.0164795,0.0102783,
8324,-0.00976563,0.0102844,
8326,-0.00976563,0.0102417,
8328,-0.00427246,0.0102112,
8330,-0.00854492,0.0102234,
8332,-0.00915527,0.01026,
8334,-0.00732422,0.0102539,
8336,-0.00671387,0.0102051,
8338,-0.0134277,0.0102661,
8340,-0.00854492,0.01026,
8342,-0.00976563,0.0102661,
8344,-0.010376,0.0102844,
8346,-0.00976563,0.0103333,
8348,-0.00976563,0.0103394,
8350,-0.0152588,0.0103882,
8352,-0.00671387,0.010437,
8354,-0.00915527,0.0104065,
8356,-0.012207,0.0104736,
8358,-0.000610352,0.0104614,
8360,-0.0134277,0.0105286,
8362,-0.0109863,0.0105347,
8364,-0.00732422,0.0105408,
