Danna3musculos_C-L01
Gráfico creado el:2026-06-09 15:09:05.109
Registro en:2026-06-09 15:09:26.949
2 mseg/muestras
2 canales
EMG
mV
EMG Integrado
mV-sec
milliSec,CH1,CH40,
,272666 samples,272666 samples,
0,0,0,
2,-0.00427246,4.27246E-05,
4,-0.00915527,0.000134277,
6,-0.00793457,0.000213623,
8,-0.00427246,0.000256348,
10,-0.0012207,0.000268555,
12,-0.00976563,0.000366211,
14,-0.00488281,0.000415039,
16,-0.00854492,0.000500488,
18,-0.0109863,0.000610352,
20,-0.00305176,0.000640869,
22,-0.00183105,0.00065918,
24,-0.00549316,0.000714111,
26,-0.00305176,0.000744629,
28,-0.00549316,0.000799561,
30,-0.00610352,0.000860596,
32,-0.00488281,0.000909424,
34,-0.00488281,0.000958252,
36,-0.00305176,0.00098877,
38,-0.00427246,0.00103149,
40,-0.00549316,0.00108643,
42,-0.00427246,0.00112915,
44,-0.00732422,0.00120239,
46,-0.00427246,0.00124512,
48,-0.0012207,0.00125732,
50,-0.00305176,0.00128784,
52,-0.00610352,0.00134888,
54,-0.00549316,0.00140381,
56,-0.00732422,0.00147705,
58,-0.00488281,0.00152588,
60,-0.0012207,0.00153809,
62,-0.00854492,0.00162354,
64,-0.00549316,0.00167847,
66,-0.00427246,0.00172119,
68,-0.010376,0.00182495,
70,-0.00549316,0.00187988,
72,0.0012207,0.00189209,
74,-0.0115967,0.00200806,
76,0.00793457,0.0020874,
78,-0.0140381,0.00222778,
80,-0.0115967,0.00234375,
82,-0.0012207,0.00235596,
84,-0.00793457,0.0024353,
86,-0.00488281,0.00248413,
88,-0.00671387,0.00255127,
90,-0.00671387,0.00261841,
92,-0.00793457,0.00269775,
94,-0.0146484,0.00284424,
96,-0.00183105,0.00286255,
98,0,0.00286255,
100,-0.00305176,0.00289307,
102,-0.00610352,0.0029541,
104,0.00488281,0.00300293,
106,-0.012207,0.003125,
108,-0.0146484,0.00327148,
110,0.00305176,0.003302,
112,-0.00671387,0.00336914,
114,-0.00854492,0.00345459,
116,-0.0109863,0.00356445,
118,-0.0177002,0.00374146,
120,-0.00793457,0.0038208,
122,-0.00854492,0.00390625,
124,-0.00793457,0.0039856,
126,-0.00610352,0.00404663,
128,-0.010376,0.00415039,
130,-0.00732422,0.00422363,
132,-0.00671387,0.00429077,
134,-0.00854492,0.00437622,
136,-0.00610352,0.00443726,
138,-0.00915527,0.00452881,
140,-0.00915527,0.00462036,
142,-0.00366211,0.00465698,
144,-0.00915527,0.00474854,
146,-0.00793457,0.00482788,
148,-0.00610352,0.00488892,
150,0.00488281,0.00493774,
152,-0.0164795,0.00510254,
154,-0.00732422,0.00517578,
156,-0.00366211,0.0052124,
158,-0.00305176,0.00524292,
160,-0.00915527,0.00533447,
162,-0.00610352,0.00539551,
164,-0.0115967,0.00551147,
166,0.0012207,0.00552368,
168,-0.0146484,0.00567017,
170,-0.00427246,0.00571289,
172,-0.00671387,0.00578003,
174,-0.00671387,0.00584717,
176,-0.00488281,0.005896,
178,-0.00732422,0.00596924,
180,-0.00732422,0.00604248,
182,-0.00183105,0.00606079,
184,-0.0128174,0.00618896,
186,-0.00244141,0.00621338,
188,-0.012207,0.00633545,
190,-0.00305176,0.00636597,
192,-0.0012207,0.00637817,
194,-0.00976563,0.00647583,
196,-0.010376,0.00657959,
198,-0.00305176,0.00661011,
200,-0.00488281,0.00665894,
202,-0.00366211,0.00665283,
204,-0.0134277,0.00669556,
206,-0.00671387,0.00668335,
208,-0.00671387,0.00670776,
210,-0.00427246,0.00673828,
212,-0.012207,0.0067627,
214,-0.00732422,0.00678711,
216,-0.00549316,0.00675659,
218,-0.00488281,0.00669556,
220,-0.00427246,0.00670776,
222,-0.00793457,0.0067688,
224,-0.00427246,0.00675659,
226,-0.00244141,0.00675049,
228,-0.00610352,0.00675659,
230,-0.00488281,0.00674438,
232,0.000610352,0.00670166,
234,0.00488281,0.00670166,
236,-0.00671387,0.00673828,
238,-0.00427246,0.00673828,
240,-0.00244141,0.00670776,
242,-0.00671387,0.00673218,
244,-0.00427246,0.00670166,
246,-0.00366211,0.00669556,
248,-0.00305176,0.00671387,
250,-0.0152588,0.00683594,
252,-0.00915527,0.00686646,
254,-0.00549316,0.00686646,
256,-0.00732422,0.00686646,
258,-0.00854492,0.00690308,
260,-0.00488281,0.0069397,
262,-0.0152588,0.00700684,
264,-0.00488281,0.00700073,
266,-0.00549316,0.00701294,
268,-0.0128174,0.00703735,
270,-0.000610352,0.00698853,
272,-0.0012207,0.00698853,
274,-0.0109863,0.00698242,
276,0,0.00690308,
278,-0.00305176,0.00679321,
280,-0.00976563,0.0067749,
282,-0.00549316,0.00681763,
284,-0.00305176,0.0067688,
286,-0.00793457,0.00679932,
288,-0.00366211,0.0067688,
290,0.0012207,0.00671387,
292,-0.0012207,0.00664673,
294,-0.00732422,0.00657349,
296,0,0.00655518,
298,0.00427246,0.0065979,
300,-0.000610352,0.00657349,
302,-0.00427246,0.00655518,
304,0.00549316,0.00656128,
306,-0.0146484,0.00658569,
308,-0.0170898,0.00661011,
310,-0.00305176,0.00661011,
312,-0.00244141,0.00656738,
314,-0.0170898,0.00665283,
316,-0.0109863,0.00665283,
318,-0.0128174,0.006604,
320,-0.00305176,0.00655518,
322,-0.00549316,0.00652466,
324,-0.0012207,0.00645752,
326,-0.0012207,0.00640869,
328,-0.00976563,0.00640259,
330,-0.00671387,0.00639648,
332,-0.000610352,0.00633545,
334,-0.00488281,0.00629883,
336,-0.00671387,0.00630493,
338,-0.00793457,0.00629272,
340,-0.0109863,0.00631104,
342,-0.00183105,0.00629272,
344,-0.00732422,0.00627441,
346,-0.00488281,0.0062439,
348,-0.000610352,0.00618896,
350,-0.00915527,0.00623169,
352,0.000610352,0.006073,
354,-0.00732422,0.006073,
356,-0.00610352,0.00609741,
358,-0.00854492,0.00615234,
360,-0.000610352,0.00606689,
362,-0.00732422,0.0060791,
364,-0.00732422,0.00603638,
366,0.000610352,0.00603027,
368,-0.00427246,0.00592651,
370,-0.0109863,0.00599365,
372,0.00244141,0.00595093,
374,-0.00305176,0.00591431,
376,0.00305176,0.005896,
378,-0.00854492,0.0059082,
380,-0.00488281,0.00588379,
382,-0.0109863,0.00597534,
384,-0.0012207,0.00585938,
386,0.00305176,0.00586548,
388,-0.010376,0.00584717,
390,-0.0128174,0.00594482,
392,-0.00732422,0.00600586,
394,-0.00854492,0.00599365,
396,-0.00854492,0.00597534,
398,-0.00671387,0.00601196,
400,-0.00305176,0.00599365,
402,-0.0128174,0.00608521,
404,-0.00854492,0.00603638,
406,-0.00793457,0.00604858,
408,-0.00854492,0.00606689,
410,-0.00305176,0.00605469,
412,-0.0115967,0.00604858,
414,-0.00732422,0.00604858,
416,-0.00915527,0.00608521,
418,-0.00793457,0.00611572,
420,-0.00427246,0.00611572,
422,-0.00427246,0.0060791,
424,-0.00732422,0.00610962,
426,-0.00244141,0.00610962,
428,-0.00793457,0.00612793,
430,-0.00549316,0.00613403,
432,-0.00549316,0.00618286,
434,-0.00854492,0.00621948,
436,-0.00427246,0.00619507,
438,-0.00549316,0.00620728,
440,-0.00793457,0.00626221,
442,0.00305176,0.00622559,
444,-0.000610352,0.00618896,
446,-0.00488281,0.00620117,
448,-0.00488281,0.00621948,
450,-0.00244141,0.00609131,
452,-0.00244141,0.00602417,
454,-0.00244141,0.00599365,
456,-0.00305176,0.00595093,
458,-0.0170898,0.00603638,
460,0.00671387,0.00605469,
462,-0.00671387,0.00596924,
464,-0.0134277,0.00605469,
466,-0.00732422,0.006073,
468,-0.00793457,0.00602417,
470,0,0.00601807,
472,-0.00305176,0.00603638,
474,-0.012207,0.00604858,
476,0.00305176,0.0060791,
478,-0.0115967,0.00616455,
480,-0.00793457,0.00614624,
482,0.000610352,0.00609741,
484,0,0.00606689,
486,-0.00915527,0.0060791,
488,0,0.00604248,
490,-0.00854492,0.00611572,
492,-0.000610352,0.00610962,
494,-0.00488281,0.00608521,
496,0.00183105,0.00610352,
498,-0.00732422,0.00613403,
500,-0.00488281,0.00617676,
502,-0.00427246,0.00617676,
504,-0.00915527,0.00621338,
506,-0.00610352,0.00612793,
508,-0.010376,0.00606079,
510,-0.00366211,0.00606689,
512,-0.00671387,0.00610962,
514,-0.00854492,0.00602417,
516,0.0012207,0.00592651,
518,-0.00854492,0.00588379,
520,-0.00305176,0.00588379,
522,-0.00610352,0.00588989,
524,-0.00549316,0.00593262,
526,0.0012207,0.00593262,
528,-0.00610352,0.005896,
530,-0.00427246,0.00587158,
532,-0.00183105,0.00588379,
534,0.00366211,0.00587158,
536,-0.00366211,0.00584106,
538,-0.0128174,0.00588989,
540,-0.00183105,0.00579834,
542,-0.000610352,0.00578613,
544,-0.0115967,0.00582886,
546,-0.00183105,0.00579834,
548,-0.00610352,0.00585327,
550,-0.00854492,0.00584717,
552,-0.012207,0.00596313,
554,-0.00305176,0.00592041,
556,0.00305176,0.00588989,
558,-0.012207,0.00592651,
560,-0.00183105,0.00593872,
562,-0.00671387,0.00593262,
564,-0.0109863,0.00596924,
566,-0.00366211,0.00599976,
568,-0.00671387,0.00602417,
570,-0.00549316,0.00596924,
572,-0.00488281,0.00599365,
574,-0.010376,0.00606689,
576,-0.00488281,0.00608521,
578,-0.00488281,0.00604858,
580,-0.0128174,0.00612793,
582,0.0109863,0.00612793,
584,-0.0128174,0.0062439,
586,0.00305176,0.0062439,
588,-0.012207,0.00626221,
590,-0.00427246,0.00617676,
592,-0.00610352,0.00616455,
594,-0.0012207,0.00609131,
596,-0.010376,0.00610962,
598,-0.00732422,0.00611572,
600,-0.00854492,0.00617065,
602,-0.00671387,0.00610962,
604,-0.00427246,0.00606689,
606,-0.00305176,0.00601807,
608,-0.00671387,0.00599976,
610,0.00366211,0.00600586,
612,-0.0140381,0.00603027,
614,0,0.00595703,
616,-0.00244141,0.00588989,
618,-0.00976563,0.0059082,
620,-0.00793457,0.00594482,
622,-0.012207,0.00602417,
624,-0.0109863,0.00606079,
626,-0.00244141,0.00606079,
628,-0.0152588,0.00613403,
630,-0.00976563,0.00617676,
632,-0.0109863,0.00623169,
634,-0.00244141,0.00617065,
636,-0.00244141,0.00615234,
638,-0.00427246,0.00614014,
640,-0.00915527,0.00615234,
642,-0.00183105,0.00614014,
644,0.00732422,0.00620728,
646,-0.00915527,0.00625,
648,0.00549316,0.0062561,
650,-0.00610352,0.00629272,
652,-0.00976563,0.00636597,
654,0.00244141,0.00636597,
656,-0.00793457,0.00641479,
658,-0.0109863,0.00635376,
660,-0.0012207,0.00629883,
662,-0.012207,0.00635376,
664,-0.0134277,0.00635376,
666,-0.00305176,0.00631104,
668,-0.00671387,0.00629883,
670,-0.00244141,0.00632324,
672,-0.00244141,0.00631714,
674,-0.00610352,0.0062561,
676,-0.00366211,0.00626221,
678,-0.00854492,0.00623169,
680,-0.0012207,0.00616455,
682,-0.00976563,0.0062561,
684,-0.00549316,0.00631104,
686,-0.00244141,0.0062439,
688,-0.00793457,0.00632324,
690,-0.00183105,0.0062561,
692,-0.00732422,0.00632324,
694,0.00305176,0.00630493,
696,0.00549316,0.00634155,
698,-0.00732422,0.00634155,
700,0.00244141,0.00631714,
702,-0.00976563,0.00637207,
704,-0.0109863,0.00639038,
706,-0.00183105,0.00634766,
708,-0.0140381,0.00638428,
710,-0.0115967,0.00646362,
712,-0.0158691,0.00655518,
714,-0.010376,0.00657349,
716,-0.00671387,0.00662842,
718,-0.00854492,0.00662842,
720,-0.0115967,0.00671387,
722,-0.00366211,0.00668945,
724,-0.00305176,0.00666504,
726,-0.0140381,0.00679321,
728,-0.00610352,0.00679321,
730,-0.00915527,0.00684204,
732,-0.00488281,0.00687256,
734,-0.00427246,0.00687866,
736,-0.00549316,0.00689697,
738,-0.0140381,0.00690918,
740,-0.00488281,0.0069397,
742,-0.00549316,0.00698853,
744,-0.00427246,0.00691528,
746,0.00427246,0.0069397,
748,-0.0158691,0.00703735,
750,-0.00244141,0.00697632,
752,-0.00671387,0.00692139,
754,-0.00427246,0.00693359,
756,-0.00671387,0.00697021,
758,-0.00915527,0.0069397,
760,-0.00610352,0.00698242,
762,-0.0146484,0.00706177,
764,-0.00671387,0.00701904,
766,-0.00549316,0.00703735,
768,-0.0146484,0.0071167,
770,-0.0012207,0.00707397,
772,-0.00244141,0.00704956,
774,-0.0170898,0.0071167,
776,0.00183105,0.00708618,
778,-0.00732422,0.0071106,
780,-0.00366211,0.00701904,
782,-0.0115967,0.00702515,
784,-0.0128174,0.00702515,
786,-0.00366211,0.00703125,
788,-0.0115967,0.00702515,
790,-0.00671387,0.00704956,
792,-0.0152588,0.00714111,
794,-0.00671387,0.00719604,
796,-0.00793457,0.00717163,
798,-0.00732422,0.00717163,
800,-0.00488281,0.00713501,
802,-0.0115967,0.00718384,
804,-0.00732422,0.00721436,
806,-0.00671387,0.00725098,
808,-0.00793457,0.00726318,
810,-0.0012207,0.00723877,
812,-0.00854492,0.00718384,
814,-0.0134277,0.00731812,
816,-0.00366211,0.00733032,
818,-0.0128174,0.00736084,
820,-0.00488281,0.00733032,
822,-0.00549316,0.00726318,
824,-0.00976563,0.00725098,
826,-0.00305176,0.00725708,
828,-0.00854492,0.00718994,
830,-0.00793457,0.00717163,
832,-0.00854492,0.00714722,
834,0.0012207,0.00713501,
836,-0.00183105,0.00712891,
838,-0.020752,0.0072937,
840,-0.00854492,0.0072876,
842,-0.0128174,0.00739746,
844,-0.0177002,0.00750122,
846,-0.00976563,0.00750732,
848,-0.0128174,0.00758057,
850,-0.0134277,0.00765381,
852,-0.0128174,0.00768433,
854,-0.00305176,0.00769043,
856,-0.00732422,0.00768433,
858,0,0.00757446,
860,-0.010376,0.00766602,
862,-0.00610352,0.00760498,
864,-0.00488281,0.00751953,
866,-0.00732422,0.00756226,
868,-0.0152588,0.00764771,
870,-0.00305176,0.00765381,
872,-0.0177002,0.0078064,
874,-0.0146484,0.00789185,
876,-0.0115967,0.00797119,
878,-0.0115967,0.00800171,
880,-0.0115967,0.00810547,
882,-0.012207,0.00812988,
884,-0.0164795,0.00823975,
886,-0.012207,0.0083374,
888,-0.010376,0.00836182,
890,-0.0109863,0.00845337,
892,-0.00976563,0.00847778,
894,-0.00549316,0.0085022,
896,-0.00915527,0.00853882,
898,-0.010376,0.00856934,
900,-0.000610352,0.00855103,
902,-0.0170898,0.00862427,
904,-0.00488281,0.00856323,
906,-0.00366211,0.00858154,
908,-0.0152588,0.00859375,
910,-0.00549316,0.00853271,
912,-0.00427246,0.00841675,
914,-0.0109863,0.00842285,
916,-0.00671387,0.00842285,
918,-0.012207,0.00845947,
920,0.00671387,0.00841064,
922,-0.0219727,0.00859375,
924,-0.00610352,0.00862427,
926,-0.00366211,0.00852051,
928,-0.00976563,0.00855713,
930,-0.00183105,0.00848389,
932,-0.0115967,0.00855103,
934,0.00183105,0.00852661,
936,-0.0152588,0.00862427,
938,-0.00915527,0.00857544,
940,-0.00305176,0.00855713,
942,-0.00366211,0.00853882,
944,-0.00610352,0.00855713,
946,-0.010376,0.00861816,
948,-0.0146484,0.00860596,
950,-0.00183105,0.00859985,
952,-0.0231934,0.00876465,
954,-0.0134277,0.0088562,
956,0.000610352,0.00879517,
958,-0.022583,0.00892944,
960,-0.0170898,0.00903931,
962,-0.0146484,0.00903931,
964,-0.0170898,0.00914307,
966,-0.010376,0.00919189,
968,-0.0146484,0.00919189,
970,-0.0115967,0.00929565,
972,-0.012207,0.00939331,
974,-0.0128174,0.00935059,
976,-0.00793457,0.00941162,
978,-0.0115967,0.00945435,
980,-0.00427246,0.00946045,
982,-0.00793457,0.00942383,
984,-0.00610352,0.00935669,
986,-0.0134277,0.00945435,
988,-0.00488281,0.00938721,
990,-0.00488281,0.0093689,
992,-0.00793457,0.00929565,
994,-0.00549316,0.00928345,
996,-0.00610352,0.00926514,
998,-0.012207,0.00931396,
1000,-0.00671387,0.00933228,
1002,-0.00854492,0.00930176,
1004,-0.00854492,0.00931396,
1006,-0.00427246,0.00928955,
1008,-0.0115967,0.00932617,
1010,-0.00366211,0.00935059,
1012,-0.00793457,0.00934448,
1014,-0.0012207,0.00922241,
1016,-0.00305176,0.00921631,
1018,-0.0152588,0.00924072,
1020,-0.00549316,0.00924683,
1022,-0.00305176,0.00922241,
1024,-0.010376,0.00922852,
1026,-0.00854492,0.00928345,
1028,-0.0134277,0.00933228,
1030,-0.0140381,0.00939331,
1032,-0.00244141,0.00933228,
1034,-0.010376,0.00942383,
1036,-0.00549316,0.00946045,
1038,-0.00854492,0.00933838,
1040,-0.00793457,0.00933228,
1042,-0.00793457,0.00928345,
1044,0.0012207,0.00911865,
1046,-0.0128174,0.00914917,
1048,-0.0170898,0.00919189,
1050,-0.00183105,0.00907593,
1052,-0.00610352,0.00900879,
1054,-0.012207,0.00910034,
1056,-0.00671387,0.00909424,
1058,-0.00671387,0.00916138,
1060,-0.0115967,0.00917358,
1062,-0.00915527,0.0092041,
1064,-0.00671387,0.00922241,
1066,-0.00549316,0.0092041,
1068,-0.00244141,0.00907593,
1070,0.000610352,0.00905151,
1072,-0.012207,0.00899658,
1074,-0.0158691,0.00900879,
1076,0.000610352,0.00889893,
1078,-0.010376,0.00888672,
1080,-0.00366211,0.00880737,
1082,-0.00793457,0.00876465,
1084,-0.0134277,0.00873413,
1086,-0.0128174,0.00874023,
1088,-0.00305176,0.00866699,
1090,-0.00549316,0.00861206,
1092,-0.0109863,0.00862427,
1094,-0.00976563,0.00866699,
1096,-0.0115967,0.00869141,
1098,0,0.00858765,
1100,-0.00732422,0.00865479,
1102,-0.00732422,0.00855713,
1104,-0.0109863,0.00861816,
1106,0.00244141,0.00860596,
1108,-0.0109863,0.00856323,
1110,0.0012207,0.00852051,
1112,-0.00244141,0.0085022,
1114,-0.012207,0.0085144,
1116,-0.010376,0.00855103,
1118,-0.00671387,0.00849609,
1120,0,0.00842896,
1122,-0.012207,0.0083313,
1124,-0.0158691,0.00842896,
1126,-0.00732422,0.00846558,
1128,-0.00549316,0.00842285,
1130,-0.0140381,0.00854492,
1132,0.00244141,0.00845337,
1134,-0.0170898,0.00860596,
1136,-0.000610352,0.00845947,
1138,-0.010376,0.00847168,
1140,-0.00366211,0.00847778,
1142,-0.00793457,0.00852051,
1144,-0.00671387,0.00852661,
1146,-0.00854492,0.0085083,
1148,-0.010376,0.00846558,
1150,-0.00549316,0.0085022,
1152,-0.00793457,0.00834961,
1154,-0.000610352,0.00822144,
1156,-0.0140381,0.00835571,
1158,-0.00610352,0.00819092,
1160,-0.00366211,0.00805664,
1162,-0.00671387,0.00797729,
1164,-0.00976563,0.00790405,
1166,-0.00732422,0.00787354,
1168,-0.00915527,0.0078186,
1170,-0.00854492,0.00778809,
1172,-0.00732422,0.00773926,
1174,-0.00671387,0.00767822,
1176,-0.00366211,0.0076355,
1178,-0.00732422,0.00759277,
1180,-0.00305176,0.00758057,
1182,-0.00488281,0.00755005,
1184,0.0012207,0.00750122,
1186,-0.0109863,0.00747681,
1188,-0.00732422,0.00750122,
1190,-0.00854492,0.00753784,
1192,-0.00671387,0.00752563,
1194,-0.00183105,0.00748901,
1196,-0.00610352,0.00748901,
1198,-0.00610352,0.00742798,
1200,-0.012207,0.00748291,
1202,-0.0109863,0.00750732,
1204,0.00305176,0.00745239,
1206,-0.0115967,0.00752563,
1208,-0.00915527,0.00750122,
1210,-0.0109863,0.00757446,
1212,-0.0140381,0.0076355,
1214,-0.00671387,0.00769043,
1216,-0.00854492,0.00774536,
1218,-0.00915527,0.00768433,
1220,-0.0109863,0.00773926,
1222,0.00183105,0.00772705,
1224,-0.0213623,0.00783691,
1226,-0.00305176,0.00778198,
1228,-0.0134277,0.00778198,
1230,-0.00671387,0.00770874,
1232,-0.00427246,0.00772705,
1234,-0.0158691,0.00778198,
1236,-0.0140381,0.00786743,
1238,-0.0170898,0.00795288,
1240,-0.00793457,0.00795288,
1242,-0.0158691,0.00803223,
1244,-0.0115967,0.00813599,
1246,-0.0164795,0.00817261,
1248,-0.0189209,0.00819092,
1250,-0.00915527,0.00826416,
1252,-0.0128174,0.0083313,
1254,0.0012207,0.00822144,
1256,0.00244141,0.00817871,
1258,-0.0219727,0.0083313,
1260,-0.0170898,0.00838623,
1262,-0.00732422,0.00836792,
1264,-0.0146484,0.00844727,
1266,-0.0134277,0.00852661,
1268,-0.0274658,0.00877686,
1270,-0.0231934,0.00900269,
1272,-0.0213623,0.00909424,
1274,-0.0238037,0.00917358,
1276,-0.0128174,0.00929565,
1278,-0.0158691,0.00935059,
1280,-0.00671387,0.0093811,
1282,-0.00854492,0.00938721,
1284,-0.0140381,0.00939331,
1286,-0.020752,0.00947266,
1288,-0.00305176,0.00947266,
1290,-0.0195313,0.00961304,
1292,-0.0201416,0.00970459,
1294,-0.0109863,0.0097168,
1296,-0.0256348,0.00985718,
1298,-0.0140381,0.00999756,
1300,-0.0170898,0.0100952,
1302,-0.0213623,0.0102356,
1304,-0.00976563,0.0102234,
1306,-0.012207,0.010321,
1308,-0.0158691,0.0103699,
1310,-0.00976563,0.0104553,
1312,-0.0152588,0.0105835,
1314,-0.0140381,0.0106018,
1316,-0.0146484,0.0106445,
1318,-0.0183105,0.0107605,
1320,-0.0134277,0.0108948,
1322,-0.0128174,0.0109009,
1324,-0.0213623,0.0109558,
1326,-0.0128174,0.0110107,
1328,-0.0140381,0.0110962,
1330,-0.0115967,0.0110718,
1332,-0.0128174,0.0111755,
1334,-0.0140381,0.011145,
1336,-0.0146484,0.0112854,
1338,-0.00915527,0.0112732,
1340,-0.0189209,0.0114258,
1342,-0.0158691,0.0115051,
1344,-0.00366211,0.0114746,
1346,-0.0134277,0.0115234,
1348,-0.0250244,0.0116699,
1350,-0.0128174,0.0117432,
1352,-0.00488281,0.0117126,
1354,-0.00305176,0.0117371,
1356,-0.0146484,0.0117432,
1358,-0.010376,0.0117859,
1360,-0.0189209,0.0119385,
1362,-0.00610352,0.0119324,
1364,-0.0250244,0.012085,
1366,-0.0109863,0.0121216,
1368,-0.0177002,0.012207,
1370,-0.0262451,0.012384,
1372,-0.0213623,0.0125244,
1374,-0.0195313,0.0126526,
1376,-0.0286865,0.0129028,
1378,-0.0134277,0.0129639,
1380,-0.0115967,0.0130493,
1382,-0.0164795,0.0131653,
1384,-0.0177002,0.0133301,
1386,-0.0170898,0.0133911,
1388,-0.0115967,0.0134338,
1390,-0.00915527,0.0134399,
1392,-0.0183105,0.0135559,
1394,-0.00915527,0.0136292,
1396,-0.0140381,0.0137085,
1398,-0.0189209,0.0138367,
1400,-0.00915527,0.0138062,
1402,-0.0152588,0.0138489,
1404,-0.0128174,0.0139465,
1406,-0.0115967,0.0139465,
1408,-0.00366211,0.0138916,
1410,-0.012207,0.0139038,
1412,-0.0195313,0.0139587,
1414,-0.0177002,0.0140686,
1416,-0.00976563,0.0140808,
1418,-0.0164795,0.0141541,
1420,-0.00671387,0.0141113,
1422,-0.0231934,0.014325,
1424,-0.0164795,0.0142761,
1426,-0.0158691,0.0144043,
1428,-0.00671387,0.0143372,
1430,-0.00610352,0.0143311,
1432,-0.0134277,0.0144226,
1434,-0.00793457,0.0143433,
1436,-0.0152588,0.0143555,
1438,-0.0128174,0.0143127,
1440,-0.0177002,0.0144104,
1442,-0.0146484,0.0143982,
1444,-0.0115967,0.0143982,
1446,-0.0189209,0.0144226,
1448,-0.0195313,0.0144287,
1450,-0.0158691,0.0144958,
1452,-0.0140381,0.0145081,
1454,-0.00183105,0.0145142,
1456,-0.0164795,0.0146545,
1458,-0.0134277,0.0145691,
1460,-0.00366211,0.0144348,
1462,-0.0158691,0.0145203,
1464,-0.00427246,0.0144165,
1466,-0.0128174,0.0144104,
1468,-0.0134277,0.01427,
1470,0.00244141,0.0140625,
1472,-0.0158691,0.0140076,
1474,-0.0140381,0.0139099,
1476,-0.010376,0.0138855,
1478,-0.00427246,0.0137695,
1480,-0.00793457,0.0137817,
1482,-0.0231934,0.0139282,
1484,0.00854492,0.0138733,
1486,-0.0134277,0.0138,
1488,-0.0128174,0.0138977,
1490,-0.0012207,0.0137146,
1492,-0.0152588,0.0136658,
1494,0.00671387,0.013623,
1496,-0.0183105,0.0135498,
1498,-0.0140381,0.0135498,
1500,-0.00793457,0.0134583,
1502,-0.0128174,0.0133728,
1504,-0.0109863,0.013385,
1506,-0.0140381,0.0134033,
1508,0.00183105,0.0132629,
1510,-0.00183105,0.0131836,
1512,-0.00793457,0.0131104,
1514,-0.010376,0.0130737,
1516,0.00915527,0.0130188,
1518,-0.0012207,0.0128479,
1520,-0.012207,0.0128357,
1522,-0.010376,0.0128113,
1524,-0.010376,0.0127014,
1526,-0.00976563,0.0126709,
1528,-0.0158691,0.0126892,
1530,-0.012207,0.0126953,
1532,-0.0164795,0.0127319,
1534,-0.00488281,0.0126404,
1536,-0.0164795,0.0126587,
1538,-0.012207,0.0126892,
1540,0.000610352,0.0125061,
1542,-0.00732422,0.0124207,
1544,-0.0164795,0.0125488,
1546,-0.00732422,0.0124878,
1548,-0.00488281,0.0122864,
1550,-0.00549316,0.0122131,
1552,-0.00427246,0.012207,
1554,-0.0146484,0.012323,
1556,-0.0128174,0.0123047,
1558,-0.00305176,0.0122314,
1560,-0.00549316,0.0120972,
1562,-0.00976563,0.0121338,
1564,-0.0152588,0.0120361,
1566,-0.00305176,0.0119568,
1568,-0.0128174,0.011908,
1570,-0.0109863,0.0117554,
1572,-0.00915527,0.0116333,
1574,-0.00976563,0.0115356,
1576,-0.0170898,0.0114197,
1578,-0.0134277,0.0114197,
1580,0.0012207,0.0113159,
1582,-0.0152588,0.0113037,
1584,-0.00183105,0.011145,
1586,-0.0195313,0.0111694,
1588,-0.00427246,0.0110962,
1590,-0.00183105,0.0110229,
1592,-0.0134277,0.0109741,
1594,-0.0146484,0.0110291,
1596,-0.0109863,0.0109985,
1598,-0.0134277,0.0109436,
1600,-0.0109863,0.0109619,
1602,-0.0183105,0.0109924,
1604,-0.020752,0.0110718,
1606,-0.00610352,0.0110168,
1608,-0.0164795,0.011145,
1610,-0.00732422,0.0110962,
1612,-0.022583,0.0111267,
1614,-0.010376,0.0110535,
1616,-0.012207,0.0110779,
1618,-0.0134277,0.0110474,
1620,0,0.0109802,
1622,-0.00305176,0.0107788,
1624,-0.0244141,0.0108582,
1626,-0.012207,0.0108215,
1628,-0.00305176,0.0107849,
1630,-0.00305176,0.0107544,
1632,-0.0177002,0.0107971,
1634,-0.0115967,0.0108337,
1636,-0.0146484,0.0108276,
1638,-0.0146484,0.0108459,
1640,-0.010376,0.0107727,
1642,-0.0170898,0.0107971,
1644,-0.00793457,0.0107605,
1646,-0.00915527,0.0106628,
1648,-0.0134277,0.0106018,
1650,-0.0128174,0.0105713,
1652,-0.0152588,0.0105835,
1654,-0.0115967,0.0106812,
1656,-0.0140381,0.0106567,
1658,-0.00244141,0.0105469,
1660,-0.0134277,0.0106445,
1662,-0.00915527,0.0105774,
1664,-0.0219727,0.0107544,
1666,0.00183105,0.0106445,
1668,-0.000610352,0.0105164,
1670,-0.012207,0.010614,
1672,-0.0140381,0.0105957,
1674,-0.0140381,0.0105957,
1676,-0.0219727,0.0107117,
1678,-0.00549316,0.0107239,
1680,-0.0109863,0.0107544,
1682,-0.0213623,0.0107361,
1684,-0.0134277,0.0107849,
1686,-0.0189209,0.0108398,
1688,-0.0158691,0.0108704,
1690,-0.00610352,0.0109192,
1692,-0.0170898,0.0109375,
1694,-0.00915527,0.0109619,
1696,-0.0170898,0.0109497,
1698,-0.00732422,0.0108826,
1700,-0.00854492,0.0108887,
1702,-0.00305176,0.010791,
1704,-0.00854492,0.0107666,
1706,-0.0134277,0.0107605,
1708,-0.00183105,0.0107605,
1710,-0.00549316,0.0107971,
1712,-0.00915527,0.0108093,
1714,-0.0152588,0.0108582,
1716,0.00183105,0.0107849,
1718,-0.0250244,0.0110229,
1720,-0.000610352,0.010907,
1722,-0.0128174,0.0109314,
1724,-0.0146484,0.0109741,
1726,-0.00732422,0.0109497,
1728,-0.0152588,0.0109436,
1730,-0.00671387,0.0108887,
1732,-0.00976563,0.0108215,
1734,-0.0146484,0.0109192,
1736,-0.00610352,0.0108154,
1738,-0.0177002,0.0108704,
1740,-0.000610352,0.0108704,
1742,0.0012207,0.0108093,
1744,-0.0140381,0.0107849,
1746,-0.0164795,0.0108765,
1748,0.00366211,0.0108643,
1750,-0.00488281,0.0108582,
1752,-0.00244141,0.0108398,
1754,-0.0177002,0.0108704,
1756,-0.0109863,0.0108521,
1758,-0.00915527,0.0109131,
1760,-0.00610352,0.0109192,
1762,-0.0146484,0.010968,
1764,-0.0195313,0.0110107,
1766,-0.00793457,0.0110596,
1768,-0.00976563,0.0110291,
1770,-0.0140381,0.0110596,
1772,-0.00549316,0.0110229,
1774,-0.0128174,0.0110535,
1776,0.000610352,0.0108887,
1778,-0.00610352,0.0108154,
1780,-0.0164795,0.010968,
1782,0.0012207,0.0108276,
1784,-0.00427246,0.0108521,
1786,-0.00976563,0.0107544,
1788,-0.0115967,0.0108276,
1790,-0.0012207,0.0108215,
1792,-0.00976563,0.0107849,
1794,0.0012207,0.0106506,
1796,-0.0115967,0.0106567,
1798,-0.00793457,0.0106018,
1800,-0.00427246,0.0105347,
1802,-0.00610352,0.0104126,
1804,-0.00305176,0.0102356,
1806,0.00244141,0.010199,
1808,-0.0231934,0.0102661,
1810,-0.00732422,0.0102661,
1812,0.000610352,0.0100464,
1814,-0.00976563,0.0100403,
1816,-0.00793457,0.00999756,
1818,-0.0134277,0.00999756,
1820,-0.00366211,0.0100342,
1822,-0.0115967,0.0101196,
1824,-0.000610352,0.00988159,
1826,-0.00610352,0.00982056,
1828,-0.0128174,0.00991821,
1830,-0.00671387,0.00995483,
1832,-0.00610352,0.00983887,
1834,-0.00915527,0.00981445,
1836,-0.00793457,0.00974731,
1838,-0.00488281,0.00964966,
1840,-0.0115967,0.00966187,
1842,-0.0115967,0.00960693,
1844,0.000610352,0.00953369,
1846,-0.00793457,0.00952148,
1848,-0.00793457,0.00946655,
1850,-0.0128174,0.00946655,
1852,-0.0115967,0.00942993,
1854,-0.00610352,0.009375,
1856,-0.00854492,0.00932007,
1858,-0.00915527,0.00938721,
1860,-0.0140381,0.00939331,
1862,-0.00732422,0.009375,
1864,-0.00793457,0.00923462,
1866,0,0.00921631,
1868,-0.00427246,0.00925293,
1870,-0.00610352,0.00919189,
1872,-0.00488281,0.00910034,
1874,0.00183105,0.00897827,
1876,-0.0128174,0.00888672,
1878,-0.00488281,0.00888062,
1880,-0.00793457,0.0088501,
1882,-0.00793457,0.00871582,
1884,-0.00671387,0.00864868,
1886,-0.0140381,0.00859985,
1888,-0.00854492,0.00852661,
1890,-0.00915527,0.00855713,
1892,-0.00549316,0.00844116,
1894,-0.012207,0.00847168,
1896,-0.000610352,0.00830688,
1898,0.00183105,0.00825195,
1900,0.010376,0.00827026,
1902,-0.0305176,0.00854492,
1904,0.00732422,0.00853271,
1906,-0.00854492,0.00848389,
1908,-0.00366211,0.0085022,
1910,-0.0109863,0.00855713,
1912,-0.0201416,0.00866699,
1914,-0.010376,0.00861816,
1916,-0.012207,0.00872192,
1918,-0.010376,0.00857544,
1920,-0.00732422,0.00864258,
1922,-0.00854492,0.00859985,
1924,-0.0012207,0.00846558,
1926,-0.00488281,0.00844116,
1928,-0.000610352,0.00829468,
1930,-0.0109863,0.0083374,
1932,-0.00244141,0.00826416,
1934,-0.00366211,0.0081543,
1936,-0.00671387,0.0081604,
1938,-0.00183105,0.00800171,
1940,-0.00488281,0.00804443,
1942,-0.00793457,0.00811157,
1944,-0.00732422,0.00804443,
1946,-0.00305176,0.00791016,
1948,-0.00183105,0.00789185,
1950,0,0.00784302,
1952,-0.00976563,0.00791626,
1954,-0.00244141,0.00776367,
1956,-0.0109863,0.00776367,
1958,0.00183105,0.00769043,
1960,-0.00915527,0.00772095,
1962,-0.00488281,0.00762329,
1964,-0.010376,0.00753174,
1966,-0.00366211,0.00748901,
1968,-0.00488281,0.00744019,
1970,-0.0134277,0.00743408,
1972,-0.00549316,0.00743408,
1974,-0.00976563,0.00740356,
1976,-0.00976563,0.00749512,
1978,-0.00488281,0.00748291,
1980,-0.00732422,0.00739136,
1982,-0.0134277,0.00751343,
1984,-0.00183105,0.00748901,
1986,-0.00244141,0.00741577,
1988,-0.00244141,0.00732422,
1990,0.0170898,0.00748291,
1992,-0.0177002,0.00756226,
1994,-0.00427246,0.00759277,
1996,-0.00488281,0.00752563,
1998,-0.012207,0.00756836,
2000,-0.0128174,0.00765381,
2002,-0.0146484,0.00773926,
2004,-0.0164795,0.00787354,
2006,-0.0128174,0.00797729,
2008,-0.0146484,0.00789185,
2010,-0.00610352,0.00787964,
2012,-0.010376,0.00797729,
2014,-0.00610352,0.00794067,
2016,-0.00610352,0.00792236,
2018,-0.00305176,0.0078186,
2020,-0.010376,0.00788574,
2022,-0.00366211,0.0078064,
2024,-0.00671387,0.00786743,
2026,0.0012207,0.0078186,
2028,-0.0134277,0.00782471,
2030,-0.00549316,0.0078125,
2032,-0.012207,0.00787354,
2034,-0.00305176,0.0078125,
2036,-0.0152588,0.00788574,
2038,-0.00488281,0.00788574,
2040,-0.010376,0.00787354,
2042,-0.00915527,0.00784912,
2044,-0.00732422,0.00791626,
2046,-0.010376,0.00794067,
2048,-0.00549316,0.00791626,
2050,-0.00793457,0.00786743,
2052,-0.00854492,0.00783691,
2054,-0.00610352,0.00783691,
2056,-0.0140381,0.00789185,
2058,-0.00976563,0.00789795,
2060,-0.00488281,0.0078064,
2062,-0.00610352,0.00779419,
2064,-0.000610352,0.00772095,
2066,-0.00915527,0.0078125,
2068,0.00610352,0.00783081,
2070,-0.00671387,0.00783691,
2072,-0.00732422,0.00786133,
2074,-0.00915527,0.00793457,
2076,-0.00488281,0.00785522,
2078,-0.00244141,0.00783081,
2080,-0.0170898,0.00792236,
2082,-0.0170898,0.00801392,
2084,-0.00671387,0.00801392,
2086,-0.00427246,0.00791626,
2088,-0.0115967,0.00794678,
2090,-0.00488281,0.00790405,
2092,-0.00976563,0.00794678,
2094,-0.0115967,0.00794067,
2096,-0.00732422,0.00800781,
2098,-0.012207,0.00811157,
2100,-0.0109863,0.00811768,
2102,-0.00915527,0.00790405,
2104,-0.000610352,0.00783691,
2106,-0.00549316,0.0078064,
2108,-0.00427246,0.0078125,
2110,-0.0109863,0.0078125,
2112,-0.00976563,0.00770874,
2114,0.00183105,0.00762329,
2116,-0.0128174,0.00762939,
2118,-0.012207,0.00764771,
2120,-0.00366211,0.00761108,
2122,-0.0128174,0.00765381,
2124,-0.012207,0.00776367,
2126,-0.0109863,0.00782471,
2128,0.00488281,0.00786743,
2130,-0.00244141,0.00778198,
2132,-0.0115967,0.00787354,
2134,-0.0115967,0.00795288,
2136,-0.00976563,0.0079834,
2138,-0.00427246,0.00800781,
2140,-0.00915527,0.00805054,
2142,-0.0146484,0.00811768,
2144,-0.00854492,0.00812988,
2146,-0.00976563,0.00819702,
2148,-0.00183105,0.00819702,
2150,-0.00915527,0.00828857,
2152,-0.00671387,0.00825806,
2154,-0.00427246,0.00827637,
2156,0.00305176,0.00819702,
2158,-0.00732422,0.00825195,
2160,-0.0164795,0.0083252,
2162,0.00305176,0.00830688,
2164,-0.010376,0.00830688,
2166,-0.0152588,0.00842285,
2168,-0.0115967,0.00848999,
2170,-0.00854492,0.00844116,
2172,-0.00549316,0.00844116,
2174,-0.0115967,0.00845947,
2176,-0.0140381,0.0085022,
2178,0.00915527,0.00854492,
2180,-0.0140381,0.00861206,
2182,-0.00793457,0.00855713,
2184,-0.00671387,0.00860596,
2186,0,0.00858154,
2188,-0.00671387,0.00862427,
2190,-0.0012207,0.00846558,
2192,-0.00854492,0.00837402,
2194,-0.00793457,0.00841064,
2196,-0.0012207,0.00837402,
2198,-0.0134277,0.00838623,
2200,0.00732422,0.0083313,
2202,-0.00793457,0.00826416,
2204,-0.0134277,0.00823364,
2206,-0.010376,0.00820923,
2208,0.00488281,0.00811157,
2210,-0.00244141,0.00807495,
2212,-0.0158691,0.00812988,
2214,0.0012207,0.00808105,
2216,0.0164795,0.00818481,
2218,-0.0140381,0.00829468,
2220,-0.00488281,0.00823975,
2222,-0.010376,0.00830688,
2224,-0.00244141,0.00826416,
2226,-0.00183105,0.00827026,
2228,-0.00854492,0.00822144,
2230,-0.0238037,0.00840454,
2232,-0.0012207,0.00829468,
2234,-0.00366211,0.00830078,
2236,-0.0158691,0.00830688,
2238,0.0012207,0.00827026,
2240,-0.0140381,0.00830688,
2242,0.00488281,0.00826416,
2244,-0.00427246,0.00823364,
2246,-0.0109863,0.00823975,
2248,-0.00427246,0.00822754,
2250,-0.00976563,0.00824585,
2252,-0.00732422,0.00823364,
2254,0.00305176,0.00820313,
2256,-0.00854492,0.00814819,
2258,0.000610352,0.00805664,
2260,-0.00549316,0.00806274,
2262,-0.00183105,0.00802002,
2264,0.000610352,0.00802002,
2266,-0.00854492,0.00801392,
2268,0.00183105,0.00797119,
2270,-0.00732422,0.00797729,
2272,-0.00305176,0.00793457,
2274,-0.00915527,0.00793457,
2276,-0.0109863,0.00799561,
2278,0,0.00797119,
2280,-0.0146484,0.00794678,
2282,-0.00305176,0.0078064,
2284,0.000610352,0.00774536,
2286,-0.00976563,0.00780029,
2288,-0.00549316,0.00773926,
2290,0.00244141,0.00771484,
2292,0,0.00761719,
2294,0.00366211,0.00753784,
2296,-0.0134277,0.00759888,
2298,-0.00549316,0.00753174,
2300,0.00305176,0.00745239,
2302,0.00244141,0.00738525,
2304,-0.0177002,0.00755615,
2306,-0.00671387,0.00756836,
2308,-0.0115967,0.0076416,
2310,-0.00366211,0.00756836,
2312,-0.0115967,0.00758667,
2314,-0.00244141,0.00759277,
2316,-0.00427246,0.00750732,
2318,-0.00244141,0.00740967,
2320,0.00305176,0.00740356,
2322,-0.00732422,0.00734863,
2324,-0.0012207,0.00723877,
2326,-0.00244141,0.00715332,
2328,-0.00793457,0.00718384,
2330,-0.00366211,0.00719604,
2332,-0.00976563,0.00717773,
2334,-0.010376,0.00716553,
2336,-0.0183105,0.00725098,
2338,-0.00183105,0.00722656,
2340,-0.00915527,0.00722656,
2342,-0.0109863,0.00718994,
2344,-0.0158691,0.00726318,
2346,0.00244141,0.00718994,
2348,-0.00915527,0.00726318,
2350,-0.00366211,0.00720825,
2352,-0.00793457,0.00722046,
2354,0.00549316,0.00723267,
2356,-0.00732422,0.00727539,
2358,-0.00793457,0.00728149,
2360,-0.00244141,0.00714111,
2362,0.00610352,0.00717163,
2364,-0.00549316,0.0071228,
2366,-0.0134277,0.00710449,
2368,0.0012207,0.00700073,
2370,-0.00549316,0.00697021,
2372,-0.0128174,0.00704346,
2374,-0.00549316,0.00698242,
2376,-0.00671387,0.00690918,
2378,-0.00854492,0.00690308,
2380,-0.00915527,0.00685425,
2382,-0.00610352,0.00683594,
2384,-0.00610352,0.00682983,
2386,-0.00427246,0.00687256,
2388,-0.00732422,0.00687866,
2390,-0.00244141,0.00689087,
2392,-0.00549316,0.00686035,
2394,-0.00305176,0.00681152,
2396,-0.00915527,0.00689087,
2398,-0.00854492,0.00684204,
2400,-0.00183105,0.00678711,
2402,-0.00915527,0.00679932,
2404,-0.0140381,0.00680542,
2406,-0.00183105,0.00671997,
2408,-0.00305176,0.00670166,
2410,-0.012207,0.00679932,
2412,-0.00854492,0.00672607,
2414,0.00183105,0.00673218,
2416,-0.00366211,0.006604,
2418,-0.0012207,0.00647583,
2420,-0.00732422,0.00650024,
2422,-0.00671387,0.00646362,
2424,-0.0012207,0.00645142,
2426,-0.0012207,0.00644531,
2428,0.00183105,0.00637817,
2430,-0.00915527,0.00623169,
2432,-0.00610352,0.00628052,
2434,-0.00732422,0.00631714,
2436,-0.00549316,0.00621338,
2438,0.00244141,0.00622559,
2440,-0.00305176,0.00611572,
2442,-0.00610352,0.00612793,
2444,-0.00366211,0.00612183,
2446,-0.0158691,0.00617065,
2448,-0.00549316,0.00618286,
2450,-0.000610352,0.00609131,
2452,-0.00671387,0.00608521,
2454,-0.0109863,0.00616455,
2456,-0.00976563,0.00617676,
2458,-0.00305176,0.00620117,
2460,-0.010376,0.00625,
2462,-0.0128174,0.00635986,
2464,0.010376,0.00645752,
2466,-0.0158691,0.00653076,
2468,0,0.00651245,
2470,-0.00671387,0.00650635,
2472,-0.00549316,0.00653076,
2474,-0.00427246,0.00648193,
2476,-0.00976563,0.00646973,
2478,0.000610352,0.00647583,
2480,-0.00915527,0.0064209,
2482,-0.00732422,0.00646362,
2484,-0.0012207,0.00646973,
2486,-0.00366211,0.00640869,
2488,-0.00854492,0.00643921,
2490,-0.00244141,0.00643921,
2492,-0.00671387,0.00650635,
2494,-0.00671387,0.00653687,
2496,-0.00427246,0.00644531,
2498,-0.010376,0.00649414,
2500,-0.00244141,0.00648804,
2502,-0.010376,0.00656738,
2504,-0.00732422,0.00646362,
2506,0.00427246,0.00643921,
2508,-0.0158691,0.00648193,
2510,0.0128174,0.00657349,
2512,-0.0189209,0.00664673,
2514,-0.00183105,0.00664063,
2516,-0.000610352,0.006604,
2518,0.000610352,0.00658569,
2520,-0.00549316,0.00661011,
2522,-0.00976563,0.00663452,
2524,-0.00488281,0.00667114,
2526,-0.00366211,0.00668335,
2528,0.00183105,0.00662231,
2530,-0.00427246,0.00662842,
2532,-0.00854492,0.00661621,
2534,-0.00427246,0.00655518,
2536,-0.00427246,0.00641479,
2538,0.00183105,0.00641479,
2540,0.00549316,0.00637817,
2542,0,0.00626831,
2544,-0.0109863,0.00621948,
2546,-0.00427246,0.00623779,
2548,-0.00305176,0.00617676,
2550,0.0012207,0.00615234,
2552,-0.010376,0.00617676,
2554,-0.00976563,0.00621948,
2556,-0.00976563,0.0062439,
2558,-0.0109863,0.00627441,
2560,-0.00549316,0.00630493,
2562,-0.00488281,0.00629272,
2564,-0.0012207,0.00625,
2566,-0.000610352,0.00612183,
2568,-0.00366211,0.00614624,
2570,-0.0128174,0.00621948,
2572,0.00976563,0.00618896,
2574,-0.00183105,0.00615234,
2576,-0.012207,0.00620728,
2578,-0.00183105,0.00614014,
2580,-0.0012207,0.00606079,
2582,-0.00610352,0.00606079,
2584,-0.00488281,0.00604858,
2586,-0.010376,0.00610962,
2588,-0.0012207,0.00604858,
2590,-0.00671387,0.00609131,
2592,0.00183105,0.00605469,
2594,0.00244141,0.00604858,
2596,-0.0146484,0.00610352,
2598,0.000610352,0.00602417,
2600,0.00549316,0.00606079,
2602,-0.00488281,0.00601807,
2604,0.00488281,0.00592651,
2606,-0.0012207,0.00592041,
2608,-0.00366211,0.00592651,
2610,-0.00305176,0.00583496,
2612,-0.00549316,0.00580444,
2614,-0.00854492,0.00587158,
2616,-0.00488281,0.00588379,
2618,-0.00854492,0.00595703,
2620,-0.00366211,0.00592041,
2622,-0.0189209,0.00604248,
2624,-0.00671387,0.00609741,
2626,-0.00610352,0.00614624,
2628,0,0.00612793,
2630,-0.00488281,0.00608521,
2632,-0.00976563,0.00612183,
2634,-0.00244141,0.006073,
2636,-0.0012207,0.00603027,
2638,0.00549316,0.00606079,
2640,-0.00488281,0.0060791,
2642,-0.0134277,0.00615234,
2644,0.00671387,0.00618286,
2646,-0.00915527,0.00611572,
2648,-0.00427246,0.00610352,
2650,-0.00366211,0.00613403,
2652,-0.0115967,0.00618286,
2654,-0.000610352,0.0060791,
2656,-0.0158691,0.00614014,
2658,-0.00610352,0.00617065,
2660,-0.000610352,0.006073,
2662,-0.00610352,0.00600586,
2664,-0.00366211,0.00593872,
2666,-0.00183105,0.00579834,
2668,0.00854492,0.00588379,
2670,-0.00915527,0.0059082,
2672,0.00183105,0.00587158,
2674,-0.00183105,0.00584717,
2676,-0.00671387,0.00581665,
2678,0,0.00581055,
2680,-0.00854492,0.00580444,
2682,-0.00488281,0.00578003,
2684,-0.010376,0.00587158,
2686,-0.00915527,0.00592651,
2688,-0.0012207,0.00585327,
2690,-0.00793457,0.0059082,
2692,0.0012207,0.00585327,
2694,-0.00305176,0.00581665,
2696,-0.00183105,0.00579224,
2698,-0.00549316,0.00574341,
2700,-0.010376,0.00582275,
2702,0.00366211,0.00575562,
2704,-0.00610352,0.00574341,
2706,-0.00915527,0.00579224,
2708,-0.00549316,0.00568848,
2710,-0.00427246,0.00560303,
2712,0.000610352,0.00541992,
2714,-0.00488281,0.00545044,
2716,-0.00305176,0.00547485,
2718,-0.00915527,0.0055603,
2720,-0.00427246,0.0055481,
2722,-0.000610352,0.00545654,
2724,-0.00366211,0.00544434,
2726,-0.00366211,0.00544434,
2728,0.000610352,0.00543213,
2730,-0.0115967,0.00550537,
2732,-0.00427246,0.00546265,
2734,0.00183105,0.00543823,
2736,-0.00549316,0.00545044,
2738,-0.00366211,0.00546875,
2740,-0.00305176,0.00544434,
2742,-0.00488281,0.00549316,
2744,-0.00488281,0.00543213,
2746,0,0.0053894,
2748,-0.00671387,0.00542603,
2750,0.00976563,0.00551147,
2752,0.00488281,0.00545654,
2754,-0.00732422,0.00543213,
2756,0.0012207,0.00534668,
2758,-0.00488281,0.00528564,
2760,-0.00488281,0.00527954,
2762,-0.000610352,0.00523682,
2764,-0.00427246,0.00526733,
2766,-0.00366211,0.00529785,
2768,0.00671387,0.00532837,
2770,-0.0146484,0.00534668,
2772,-0.00732422,0.00532227,
2774,0.00427246,0.00534668,
2776,0.00366211,0.00526123,
2778,-0.0152588,0.00539551,
2780,-0.00793457,0.00546265,
2782,-0.00610352,0.00546265,
2784,-0.00793457,0.00549316,
2786,-0.00305176,0.00541992,
2788,-0.00549316,0.00546265,
2790,-0.00671387,0.00546265,
2792,-0.00854492,0.00552979,
2794,0.00671387,0.00557251,
2796,-0.00610352,0.00548706,
2798,-0.00610352,0.00554199,
2800,0,0.00548706,
2802,-0.00244141,0.00546265,
2804,0,0.00541382,
2806,-0.00488281,0.00545044,
2808,-0.00610352,0.00547485,
2810,-0.00671387,0.00551147,
2812,-0.00427246,0.00549927,
2814,-0.00732422,0.00548706,
2816,0.0012207,0.00545044,
2818,-0.00366211,0.00540161,
2820,-0.010376,0.00546875,
2822,0.00305176,0.00531006,
2824,0.0146484,0.0053894,
2826,-0.0183105,0.00551147,
2828,0.00976563,0.00560913,
2830,-0.00549316,0.00561523,
2832,-0.000610352,0.00552368,
2834,0.00244141,0.00552368,
2836,0.00366211,0.0055481,
2838,-0.00915527,0.00558472,
2840,0.00183105,0.0055542,
2842,-0.00976563,0.00551758,
2844,0.000610352,0.00545654,
2846,-0.00610352,0.00542603,
2848,-0.00488281,0.00543213,
2850,0,0.00539551,
2852,-0.010376,0.0053833,
2854,-0.0134277,0.00551147,
2856,-0.00671387,0.00541992,
2858,0.000610352,0.00536499,
2860,-0.0109863,0.00546875,
2862,0,0.00540771,
2864,-0.000610352,0.0053772,
2866,-0.0115967,0.00547485,
2868,0.00244141,0.00541382,
2870,-0.012207,0.00544434,
2872,-0.00671387,0.00549316,
2874,0.0012207,0.00548706,
2876,-0.00366211,0.00545654,
2878,0.00793457,0.00553589,
2880,-0.0201416,0.00565186,
2882,-0.00549316,0.00565796,
2884,0.00427246,0.00559692,
2886,-0.00793457,0.00558472,
2888,0.00183105,0.00559082,
2890,-0.0128174,0.00563965,
2892,-0.00854492,0.00571289,
2894,-0.000610352,0.00568848,
2896,-0.0109863,0.00578003,
2898,0,0.0057251,
2900,-0.00549316,0.00567627,
2902,-0.000610352,0.00564575,
2904,-0.00671387,0.00565186,
2906,0.00427246,0.00560303,
2908,0.0152588,0.00570068,
2910,-0.010376,0.00576172,
2912,-0.00183105,0.00577393,
2914,0.00549316,0.00578003,
2916,0.0146484,0.005896,
2918,-0.00671387,0.00587158,
2920,-0.0158691,0.00598755,
2922,0.00183105,0.00599976,
2924,0.00183105,0.00598145,
2926,-0.010376,0.00604858,
2928,0,0.00604248,
2930,-0.00671387,0.00599365,
2932,-0.00183105,0.00596924,
2934,-0.00305176,0.00598145,
2936,-0.00915527,0.00601807,
2938,0.00915527,0.006073,
2940,0.00488281,0.00609131,
2942,-0.00976563,0.00614014,
2944,0.0183105,0.00627441,
2946,-0.012207,0.00639648,
2948,-0.012207,0.00645142,
2950,0.00610352,0.00641479,
2952,-0.00244141,0.00639038,
2954,-0.00976563,0.00641479,
2956,-0.0115967,0.00651855,
2958,-0.00244141,0.00649414,
2960,-0.0109863,0.00655518,
2962,-0.010376,0.00665283,
2964,-0.00671387,0.00667725,
2966,0.00671387,0.00670776,
2968,-0.0128174,0.0067688,
2970,-0.000610352,0.00662842,
2972,-0.00244141,0.00657959,
2974,0.00427246,0.00657959,
2976,0.00244141,0.00656738,
2978,-0.00671387,0.00648193,
2980,-0.00549316,0.00645752,
2982,-0.00244141,0.0064209,
2984,0,0.00634155,
2986,-0.00793457,0.00639038,
2988,-0.00915527,0.006427,
2990,-0.0109863,0.00646973,
2992,-0.00427246,0.006427,
2994,-0.00366211,0.00639648,
2996,-0.00610352,0.00639648,
2998,-0.00488281,0.00638428,
3000,-0.00549316,0.00643921,
3002,-0.000610352,0.0064209,
3004,-0.00854492,0.00650635,
3006,-0.00671387,0.00652466,
3008,0,0.00646362,
3010,-0.00549316,0.00645142,
3012,-0.00976563,0.00650635,
3014,-0.00305176,0.00646362,
3016,-0.00244141,0.00647583,
3018,-0.000610352,0.00644531,
3020,-0.0152588,0.00649414,
3022,-0.00183105,0.00648193,
3024,-0.00549316,0.00639038,
3026,0.00976563,0.00630493,
3028,-0.00976563,0.00630493,
3030,-0.00305176,0.00628052,
3032,-0.00915527,0.00636597,
3034,0.00183105,0.00635986,
3036,-0.00305176,0.00635376,
3038,-0.00366211,0.00629883,
3040,0.00854492,0.00636597,
3042,-0.00793457,0.00634766,
3044,-0.00671387,0.00640869,
3046,0,0.00634766,
3048,-0.0012207,0.00631104,
3050,-0.00793457,0.00639038,
3052,-0.0109863,0.00639648,
3054,-0.00976563,0.00635986,
3056,-0.00732422,0.00636597,
3058,-0.00793457,0.00643921,
3060,-0.0109863,0.00643921,
3062,-0.00427246,0.00648193,
3064,-0.012207,0.0065979,
3066,0.000610352,0.00648804,
3068,-0.00549316,0.00651855,
3070,-0.00305176,0.006427,
3072,0.00183105,0.00637817,
3074,-0.00427246,0.00640869,
3076,0.00183105,0.00639038,
3078,-0.000610352,0.00631714,
3080,-0.0012207,0.00612793,
3082,-0.010376,0.00617676,
3084,-0.00305176,0.00616455,
3086,-0.00732422,0.00615845,
3088,-0.0012207,0.00615234,
3090,-0.00366211,0.00606079,
3092,-0.00549316,0.00603027,
3094,-0.00305176,0.00605469,
3096,-0.00610352,0.00600586,
3098,-0.00915527,0.00609741,
3100,0.00854492,0.00612793,
3102,0.00854492,0.00620728,
3104,-0.00854492,0.00622559,
3106,-0.0146484,0.00632935,
3108,-0.00427246,0.00621948,
3110,-0.00427246,0.00615845,
3112,0.00610352,0.00620117,
3114,-0.0146484,0.00629272,
3116,0.00427246,0.00618896,
3118,0.00427246,0.00616455,
3120,-0.0128174,0.00613403,
3122,0.0213623,0.00632935,
3124,0.00366211,0.00634766,
3126,-0.00610352,0.00630493,
3128,-0.0177002,0.00648193,
3130,0.0170898,0.00658569,
3132,-0.0164795,0.00673218,
3134,-0.000610352,0.00670776,
3136,0.00549316,0.00667114,
3138,-0.0268555,0.00684814,
3140,-0.0164795,0.00696411,
3142,-0.00305176,0.00689697,
3144,-0.000610352,0.00671997,
3146,0.00305176,0.00662842,
3148,-0.0164795,0.00667114,
3150,-0.00976563,0.00670776,
3152,-0.0146484,0.00682983,
3154,0.000610352,0.00673828,
3156,-0.00854492,0.00670776,
3158,0.000610352,0.00668945,
3160,-0.0012207,0.0065918,
3162,-0.00305176,0.00651855,
3164,-0.00732422,0.00652466,
3166,0.00976563,0.00655518,
3168,0.00366211,0.00646362,
3170,-0.0219727,0.00667725,
3172,0.00793457,0.00673218,
3174,0.0012207,0.00670166,
3176,0.00427246,0.00671997,
3178,-0.00427246,0.00669556,
3180,-0.00610352,0.00670166,
3182,-0.0152588,0.00682983,
3184,0.000610352,0.00683594,
3186,-0.00610352,0.00681763,
3188,-0.00671387,0.00679321,
3190,0.00610352,0.00674438,
3192,-0.00854492,0.00678711,
3194,-0.0134277,0.00688477,
3196,0.00976563,0.00692139,
3198,0,0.00687256,
3200,-0.00305176,0.00684814,
3202,-0.000610352,0.00684814,
3204,-0.00183105,0.00678101,
3206,-0.00305176,0.00674438,
3208,0.000610352,0.00675049,
3210,-0.0128174,0.00682373,
3212,0.000610352,0.00673218,
3214,-0.00610352,0.0067627,
3216,0.00244141,0.0067627,
3218,-0.000610352,0.0067627,
3220,-0.00610352,0.00667114,
3222,0.000610352,0.00665894,
3224,-0.00732422,0.00667725,
3226,0.00610352,0.00664063,
3228,-0.00915527,0.00663452,
3230,-0.00366211,0.00664063,
3232,-0.00854492,0.00663452,
3234,-0.00976563,0.00671387,
3236,-0.010376,0.00678711,
3238,0.00915527,0.00684204,
3240,0,0.00675659,
3242,-0.0115967,0.00679321,
3244,0.00305176,0.00675659,
3246,-0.00305176,0.00678711,
3248,-0.000610352,0.00678101,
3250,0,0.00670166,
3252,-0.00305176,0.00662231,
3254,-0.00305176,0.00655518,
3256,-0.00366211,0.00651855,
3258,-0.0012207,0.00645142,
3260,-0.00427246,0.00638428,
3262,0.000610352,0.00634766,
3264,-0.00305176,0.0062561,
3266,-0.00366211,0.00628662,
3268,0.00183105,0.00625,
3270,-0.00549316,0.00627441,
3272,0.000610352,0.00626221,
3274,0.0012207,0.00623169,
3276,-0.00244141,0.00623779,
3278,0.00305176,0.00626221,
3280,-0.00244141,0.00627441,
3282,-0.00183105,0.00618896,
3284,0.00183105,0.00617676,
3286,-0.000610352,0.00610962,
3288,0.0012207,0.00610962,
3290,-0.0012207,0.00608521,
3292,0.000610352,0.00603638,
3294,0.000610352,0.00601196,
3296,-0.0012207,0.00596313,
3298,0.0012207,0.00588379,
3300,0.00305176,0.00582886,
3302,0.000610352,0.00574951,
3304,-0.00183105,0.00568237,
3306,-0.00976563,0.00563354,
3308,0.00366211,0.00562744,
3310,-0.00854492,0.00567017,
3312,0.00305176,0.00563965,
3314,-0.00732422,0.00556641,
3316,-0.00854492,0.00560913,
3318,-0.00244141,0.00559082,
3320,-0.00488281,0.00551147,
3322,0.00244141,0.00532227,
3324,-0.00305176,0.00531616,
3326,-0.0115967,0.00537109,
3328,0.0012207,0.0052063,
3330,-0.00671387,0.00510254,
3332,-0.00732422,0.00501099,
3334,-0.00427246,0.00504761,
3336,-0.0109863,0.00510254,
3338,-0.00671387,0.00490112,
3340,-0.0115967,0.00485229,
3342,-0.00610352,0.00488281,
3344,-0.00610352,0.00493774,
3346,-0.00610352,0.00496826,
3348,0.00671387,0.00487061,
3350,-0.010376,0.00487671,
3352,0.00488281,0.00477905,
3354,-0.00793457,0.00485229,
3356,-0.00305176,0.00479736,
3358,0.0012207,0.00480347,
3360,0.00610352,0.00485229,
3362,0.00244141,0.00484619,
3364,-0.00732422,0.00484619,
3366,0,0.00474854,
3368,-0.00488281,0.00476074,
3370,-0.00366211,0.00457764,
3372,-0.00244141,0.00452271,
3374,-0.00305176,0.00454102,
3376,-0.010376,0.00460205,
3378,-0.0152588,0.00471191,
3380,-0.00244141,0.00467529,
3382,-0.00793457,0.00460205,
3384,-0.00427246,0.00463867,
3386,0.00610352,0.00463867,
3388,-0.00610352,0.00463257,
3390,-0.00549316,0.00462646,
3392,-0.00427246,0.00458374,
3394,0,0.00444946,
3396,-0.00183105,0.00437012,
3398,-0.00671387,0.00443726,
3400,-0.00671387,0.00447388,
3402,-0.00183105,0.00448608,
3404,-0.00305176,0.00449829,
3406,0.0146484,0.00461426,
3408,-0.00244141,0.00463257,
3410,-0.00976563,0.00460205,
3412,-0.00305176,0.00462646,
3414,0.0115967,0.0046814,
3416,-0.00976563,0.00475464,
3418,-0.0146484,0.00489502,
3420,-0.00854492,0.00491943,
3422,-0.00915527,0.00500488,
3424,-0.00610352,0.00499268,
3426,0.00671387,0.00499878,
3428,-0.00549316,0.00496216,
3430,-0.0134277,0.00505981,
3432,-0.0012207,0.00498657,
3434,-0.00549316,0.00494385,
3436,-0.00427246,0.00488281,
3438,0.00244141,0.00481567,
3440,-0.012207,0.00493774,
3442,-0.00427246,0.0048645,
3444,-0.00671387,0.00490112,
3446,0.000610352,0.00487671,
3448,-0.00305176,0.00490112,
3450,-0.00549316,0.00495605,
3452,-0.00183105,0.00494385,
3454,-0.00549316,0.00496826,
3456,-0.00732422,0.00500488,
3458,0.0012207,0.00500488,
3460,-0.00305176,0.00499268,
3462,-0.00976563,0.00508423,
3464,-0.00244141,0.00507813,
3466,-0.00671387,0.00510864,
3468,-0.0012207,0.00510254,
3470,-0.00549316,0.00510254,
3472,-0.000610352,0.00510254,
3474,0.000610352,0.00509644,
3476,-0.00793457,0.00515137,
3478,0.00915527,0.0052124,
3480,0.0115967,0.00530396,
3482,-0.00610352,0.00534668,
3484,0.00183105,0.00534668,
3486,-0.0012207,0.00535278,
3488,0,0.00534058,
3490,0.00183105,0.00534668,
3492,-0.0158691,0.00549927,
3494,-0.0115967,0.00560913,
3496,-0.00549316,0.00565186,
3498,-0.00854492,0.0057251,
3500,-0.00915527,0.00578613,
3502,0.00305176,0.00581055,
3504,-0.0012207,0.00580444,
3506,0.00488281,0.00575562,
3508,-0.00549316,0.00577393,
3510,-0.012207,0.00581055,
3512,0.00915527,0.00587158,
3514,-0.00732422,0.00587158,
3516,-0.00366211,0.00582275,
3518,-0.00671387,0.00586548,
3520,-0.0128174,0.00594482,
3522,-0.00976563,0.00601807,
3524,-0.00427246,0.00603027,
3526,-0.00366211,0.00595093,
3528,-0.00366211,0.00597534,
3530,-0.00732422,0.00598145,
3532,-0.00488281,0.00595703,
3534,-0.0146484,0.00606079,
3536,0.0195313,0.00614624,
3538,-0.00732422,0.00615234,
3540,-0.0134277,0.00617065,
3542,-0.0012207,0.00612183,
3544,0.00549316,0.00611572,
3546,-0.00549316,0.00610962,
3548,0.00244141,0.00606689,
3550,-0.00244141,0.00598755,
3552,-0.00671387,0.00600586,
3554,-0.00183105,0.00594482,
3556,-0.00610352,0.00597534,
3558,0.00549316,0.00601807,
3560,-0.00366211,0.00599365,
3562,-0.00671387,0.00603638,
3564,-0.00549316,0.00601807,
3566,-0.00549316,0.006073,
3568,0.00488281,0.006073,
3570,-0.00976563,0.00613403,
3572,0.0012207,0.00612183,
3574,0.00244141,0.00611572,
3576,-0.00732422,0.00608521,
3578,0.00244141,0.00595703,
3580,-0.00976563,0.00603027,
3582,-0.00183105,0.00596924,
3584,0.0109863,0.00603638,
3586,-0.0109863,0.00608521,
3588,-0.00305176,0.00605469,
3590,-0.00183105,0.00601807,
3592,-0.0012207,0.00598755,
3594,0.00244141,0.00601196,
3596,-0.00488281,0.00604248,
3598,0.0152588,0.00612793,
3600,-0.0128174,0.00618896,
3602,0.000610352,0.00617676,
3604,0.00366211,0.00618286,
3606,-0.000610352,0.00604248,
3608,-0.0201416,0.00621948,
3610,0.000610352,0.00612793,
3612,-0.012207,0.00621948,
3614,0.00732422,0.00617676,
3616,-0.00976563,0.00617676,
3618,-0.00976563,0.00612793,
3620,-0.00366211,0.0060791,
3622,-0.00610352,0.00604858,
3624,-0.000610352,0.00599365,
3626,-0.00549316,0.00598145,
3628,0.0012207,0.00593872,
3630,0.00183105,0.00582275,
3632,-0.00183105,0.00582886,
3634,0.00732422,0.00584717,
3636,0.00244141,0.00582886,
3638,0.00366211,0.00584106,
3640,-0.00488281,0.00576782,
3642,0.0164795,0.00588989,
3644,0.00793457,0.0059021,
3646,0.0128174,0.00602417,
3648,0.00244141,0.00601807,
3650,0.0415039,0.00637817,
3652,0.0402832,0.0067627,
3654,0.0360107,0.00706787,
3656,0.0250244,0.00724487,
3658,0.0012207,0.00724487,
3660,-0.000610352,0.00722046,
3662,-0.0109863,0.00723267,
3664,-0.0134277,0.00734253,
3666,-0.0317383,0.00759277,
3668,-0.0335693,0.00791626,
3670,-0.0286865,0.00814819,
3672,0.0402832,0.00854492,
3674,0.0384521,0.00892334,
3676,-0.00549316,0.00889893,
3678,0.032959,0.00913696,
3680,0.0354004,0.009375,
3682,-0.0201416,0.00951538,
3684,0.0750732,0.0102478,
3686,0.0646973,0.0108826,
3688,0.0354004,0.0112366,
3690,0.0549316,0.0117676,
3692,-0.0469971,0.0120789,
3694,-0.0115967,0.0120789,
3696,0.0250244,0.0122742,
3698,0.00183105,0.012207,
3700,-0.0585938,0.0127014,
3702,-0.0695801,0.0133667,
3704,-0.115967,0.0145142,
3706,-0.0500488,0.0149658,
3708,-0.0500488,0.0154114,
3710,-0.0286865,0.0155762,
3712,-0.0372314,0.0158569,
3714,-0.0238037,0.0160217,
3716,0.00915527,0.0160767,
3718,0.0189209,0.0161987,
3720,0.0115967,0.0161865,
3722,-0.00488281,0.0161377,
3724,0.00305176,0.0161255,
3726,0.0482178,0.016571,
3728,0.0720215,0.0172546,
3730,0.0280762,0.0174622,
3732,0.020752,0.0176208,
3734,0.0274658,0.017749,
3736,0.0744629,0.0182983,
3738,0.146484,0.0196899,
3740,-0.0262451,0.0198181,
3742,0.012207,0.019928,
3744,0.112305,0.0209961,
3746,0.147095,0.0224121,
3748,0.057373,0.0229614,
3750,0.0524902,0.0234619,
3752,-0.0836182,0.024231,
3754,0.043335,0.024646,
3756,-0.00488281,0.0246338,
3758,-0.0701904,0.0252808,
3760,-0.0915527,0.0261597,
3762,-0.119019,0.0272827,
3764,-0.0842285,0.0280701,
3766,-0.090332,0.0289185,
3768,-0.0897217,0.0297668,
3770,-0.0402832,0.030072,
3772,-0.0488281,0.0305481,
3774,-0.032959,0.0308533,
3776,-0.0268555,0.0310486,
3778,-0.0183105,0.0312073,
3780,-0.022583,0.0313354,
3782,-0.012207,0.0314392,
3784,-0.00183105,0.0313477,
3786,-0.000610352,0.0312439,
3788,0.0140381,0.0313538,
3790,-0.00854492,0.0314209,
3792,0.00305176,0.0314392,
3794,0.0213623,0.0316284,
3796,-0.0134277,0.0317139,
3798,0.00854492,0.0316467,
3800,-0.00305176,0.0315491,
3802,0.0164795,0.0317078,
3804,-0.00549316,0.0317261,
3806,0.000610352,0.0317261,
3808,0.0128174,0.0316528,
3810,0.010376,0.0317505,
3812,0.0146484,0.0317749,
3814,-0.00976563,0.0317993,
3816,0.00366211,0.0317383,
3818,0.00732422,0.0317139,
3820,0.00610352,0.0317383,
3822,0.0128174,0.0318054,
3824,0.00244141,0.0318237,
3826,0.055542,0.0323242,
3828,0.100708,0.0333191,
3830,0.162354,0.0349243,
3832,0.0195313,0.0351013,
3834,0.00915527,0.0351196,
3836,0.0915527,0.0360107,
3838,0.0531006,0.0365051,
3840,0.0836182,0.0372925,
3842,-0.0250244,0.0373779,
3844,-0.0219727,0.0375183,
3846,0.0231934,0.0376221,
3848,-0.0616455,0.0382141,
3850,-0.032959,0.0381287,
3852,0.010376,0.0378296,
3854,-0.0195313,0.0376648,
3856,-0.0457764,0.0378723,
3858,-0.0390625,0.0382507,
3860,-0.0183105,0.0384277,
3862,-0.0128174,0.038446,
3864,-0.0335693,0.0386475,
3866,-0.000610352,0.0383362,
3868,-0.022583,0.0382263,
3870,0.00183105,0.0379578,
3872,0.0109863,0.0376648,
3874,0.00915527,0.0373718,
3876,-0.0219727,0.0375366,
3878,0.00976563,0.0373047,
3880,0.000610352,0.0369568,
3882,0.0158691,0.0369141,
3884,0.0238037,0.0364014,
3886,0.0201416,0.0359558,
3888,0.0323486,0.0359253,
3890,0.0964355,0.0363403,
3892,0.0860596,0.036731,
3894,0.0854492,0.0374695,
3896,0.0994873,0.0382141,
3898,0.114136,0.0393372,
3900,0.233765,0.0410889,
3902,0.00976563,0.0404907,
3904,0.0280762,0.0396118,
3906,0.118408,0.0402954,
3908,0.114136,0.0409363,
3910,0.0939941,0.0415894,
3912,0.10437,0.0422607,
3914,-0.000610352,0.0420288,
3916,0.10498,0.0429871,
3918,0.169678,0.0444946,
3920,0.00671387,0.0444458,
3922,0.157471,0.0459717,
3924,0.0128174,0.0460693,
3926,0.103149,0.0466187,
3928,0.214233,0.0480408,
3930,-0.0274658,0.0480347,
3932,-0.153809,0.0493652,
3934,0.0360107,0.0494507,
3936,-0.0183105,0.0488892,
3938,-0.0170898,0.0475952,
3940,-0.148926,0.048822,
3942,-0.134888,0.0500488,
3944,-0.117188,0.0500977,
3946,-0.0738525,0.0493652,
3948,-0.043335,0.0492249,
3950,0.00976563,0.0487976,
3952,-0.0524902,0.0484863,
3954,-0.0299072,0.0483521,
3956,-0.142212,0.0497253,
3958,0.0012207,0.0490356,
3960,-0.102539,0.0491455,
3962,-0.078125,0.0487366,
3964,-0.0415039,0.0483093,
3966,-0.0439453,0.0478455,
3968,-0.0897217,0.0478455,
3970,0.0177002,0.0476196,
3972,0.0109863,0.0472412,
3974,-0.0177002,0.0470886,
3976,0.112305,0.0479431,
3978,0.0396729,0.0481567,
3980,-0.0738525,0.0486694,
3982,0.0244141,0.0487915,
3984,0.0408936,0.0491821,
3986,0.00976563,0.0492737,
3988,0.0378418,0.0495117,
3990,-0.0866699,0.050293,
3992,-0.119629,0.0514587,
3994,-0.043335,0.0516785,
3996,-0.0476074,0.0520203,
3998,-0.020752,0.0521423,
4000,-0.0115967,0.0522278,
4002,-0.0244141,0.0523071,
4004,0.0238037,0.0524902,
4006,-0.124512,0.0537292,
4008,0.0427246,0.0540283,
4010,0.0311279,0.0542358,
4012,0.00854492,0.0541748,
4014,-0.0317383,0.0543945,
4016,-0.00732422,0.0544312,
4018,-0.0231934,0.0545898,
4020,0.0585938,0.0551147,
4022,0.0598145,0.0555847,
4024,0.0335693,0.055896,
4026,0.0750732,0.0560913,
4028,0.0421143,0.0555054,
4030,0.0292969,0.0541748,
4032,0.012207,0.0541016,
4034,0.0964355,0.0549744,
4036,-0.022583,0.0542847,
4038,-0.0311279,0.0540649,
4040,0.00366211,0.0532654,
4042,0.0396729,0.0534119,
4044,0.0158691,0.0533508,
4046,-0.0335693,0.0534546,
4048,-0.00915527,0.0529297,
4050,-0.0476074,0.0530762,
4052,0.0280762,0.0532532,
4054,-0.010376,0.0531616,
4056,0,0.0527039,
4058,-0.0402832,0.0527161,
4060,-0.0201416,0.0527344,
4062,-0.00244141,0.0526306,
4064,-0.0354004,0.0526489,
4066,-0.0140381,0.0527832,
4068,-0.00610352,0.0526184,
4070,-0.00183105,0.0526184,
4072,0.00305176,0.0525391,
4074,-0.0219727,0.0526672,
4076,-0.0238037,0.0526855,
4078,0.0830078,0.053418,
4080,0.0402832,0.0538147,
4082,0.0372314,0.0540283,
4084,-0.020752,0.0539978,
4086,-0.0158691,0.0539551,
4088,0.0524902,0.0541565,
4090,0.0140381,0.0533325,
4092,0,0.0524719,
4094,0.0317383,0.0519348,
4096,-0.0408936,0.0513489,
4098,-0.0378418,0.0505859,
4100,0.0701904,0.0489502,
4102,0.0311279,0.0491638,
4104,-0.0238037,0.0491211,
4106,-0.0244141,0.0481812,
4108,0.0494385,0.0475342,
4110,-0.00549316,0.0466492,
4112,-0.0250244,0.0458557,
4114,-0.00549316,0.0459045,
4116,-0.0128174,0.0449829,
4118,-0.00366211,0.0433228,
4120,-0.0195313,0.0434509,
4122,-0.0823975,0.0427002,
4124,-0.0189209,0.0427612,
4126,0.012207,0.0418518,
4128,-0.0836182,0.0405457,
4130,-0.00915527,0.0403625,
4132,0.00549316,0.0388794,
4134,-0.0610352,0.0391296,
4136,-0.0286865,0.0392334,
4138,-0.0219727,0.0392822,
4140,0.00305176,0.0378235,
4142,-0.0280762,0.0367554,
4144,-0.0286865,0.0358704,
4146,-0.00671387,0.035199,
4148,-0.0177002,0.0349426,
4150,-0.00732422,0.0349182,
4152,-0.0384521,0.0347778,
4154,0.00244141,0.0345032,
4156,0.0366211,0.0334473,
4158,0.078125,0.0342163,
4160,-0.0494385,0.0336853,
4162,-0.0109863,0.0330139,
4164,0.022583,0.0328247,
4166,0.00610352,0.0324463,
4168,0.0396729,0.0319458,
4170,-0.0317383,0.0320862,
4172,-0.067749,0.0326538,
4174,-0.0292969,0.0327698,
4176,-0.0231934,0.0318787,
4178,0.0012207,0.0314941,
4180,-0.022583,0.0309814,
4182,0.0189209,0.0309265,
4184,0.0158691,0.0306763,
4186,-0.0390625,0.0309692,
4188,-0.00915527,0.0306824,
4190,0.00793457,0.029895,
4192,-0.0262451,0.0289612,
4194,-0.0134277,0.0286621,
4196,-0.0720215,0.0289063,
4198,-0.0244141,0.0289429,
4200,-0.0128174,0.0289551,
4202,-0.012207,0.028833,
4204,-0.0585938,0.0291809,
4206,0.000610352,0.0279419,
4208,-0.00183105,0.027533,
4210,-0.00305176,0.0272522,
4212,-0.00366211,0.0272034,
4214,-0.0183105,0.0270691,
4216,-0.0231934,0.0272278,
4218,0.0012207,0.0270081,
4220,-0.020752,0.0266296,
4222,-0.00305176,0.026062,
4224,0.0146484,0.0258728,
4226,-0.0457764,0.0255798,
4228,-0.00305176,0.0251892,
4230,-0.00854492,0.0249817,
4232,-0.0378418,0.025238,
4234,-0.0372314,0.024646,
4236,-0.0292969,0.0247131,
4238,0.0274658,0.0246765,
4240,0.0427246,0.0250671,
4242,-0.0561523,0.0252319,
4244,-0.0213623,0.0252869,
4246,0.0567627,0.0255188,
4248,0.0170898,0.0255981,
4250,-0.0311279,0.0254333,
4252,-0.00732422,0.0252258,
4254,-0.0360107,0.0254822,
4256,-0.0463867,0.025946,
4258,0.0518799,0.026062,
4260,-0.0720215,0.0265808,
4262,-0.0274658,0.0268311,
4264,-0.00549316,0.026532,
4266,-0.00427246,0.0264343,
4268,0.00244141,0.0263977,
4270,0.0878906,0.0272583,
4272,-0.0421143,0.0276489,
4274,-0.0946045,0.0283752,
4276,0.0378418,0.0285156,
4278,0.0274658,0.0279602,
4280,-0.0244141,0.0278015,
4282,-0.109863,0.0285278,
4284,-0.0262451,0.0285828,
4286,-0.00305176,0.0284546,
4288,-0.0708008,0.0286377,
4290,-0.020752,0.0287048,
4292,-0.00305176,0.0287354,
4294,-0.0421143,0.0288391,
4296,-0.0280762,0.0287109,
4298,0.00854492,0.028418,
4300,0.00305176,0.0277466,
4302,0.0286865,0.0277222,
4304,-0.0170898,0.027655,
4306,-0.010376,0.0275146,
4308,0.0231934,0.0272522,
4310,-0.012207,0.0273193,
4312,-0.012207,0.0271912,
4314,-0.0134277,0.0272705,
4316,-0.0585938,0.0277283,
4318,-0.010376,0.0277954,
4320,-0.0567627,0.0281677,
4322,0.00427246,0.0273865,
4324,-0.00915527,0.0272888,
4326,-0.00671387,0.0272339,
4328,-0.00244141,0.0264221,
4330,-0.0518799,0.0268494,
4332,0.0109863,0.0269043,
4334,0.00793457,0.0263733,
4336,-0.010376,0.0261902,
4338,-0.0152588,0.026123,
4340,0.00427246,0.0261353,
4342,-0.045166,0.0263062,
4344,-0.0256348,0.0262756,
4346,0.0012207,0.0262207,
4348,-0.00671387,0.0261108,
4350,0.0140381,0.026178,
4352,-0.0280762,0.0260742,
4354,0.0262451,0.0263123,
4356,-0.00244141,0.0259705,
4358,0.00305176,0.0252197,
4360,0.0421143,0.0251465,
4362,0.0280762,0.0253174,
4364,-0.0598145,0.0256897,
4366,-0.0256348,0.025885,
4368,-0.0482178,0.0259705,
4370,-0.032959,0.0259827,
4372,-0.0396729,0.0257019,
4374,-0.0598145,0.0260071,
4376,0.00305176,0.0258057,
4378,0.0372314,0.0261658,
4380,0.0128174,0.0260681,
4382,-0.0250244,0.0261292,
4384,0.0622559,0.026593,
4386,0.0012207,0.0262146,
4388,0.000610352,0.0261292,
4390,-0.0311279,0.0263611,
4392,-0.0201416,0.0263,
4394,-0.057373,0.0267395,
4396,-0.0317383,0.0263367,
4398,-0.0378418,0.0264709,
4400,-0.00488281,0.0263916,
4402,-0.0109863,0.0263794,
4404,-0.0268555,0.026062,
4406,0.0280762,0.0263367,
4408,0.00671387,0.0263855,
4410,-0.00305176,0.0263855,
4412,0.00854492,0.0264343,
4414,-0.012207,0.0263733,
4416,0.0256348,0.0263977,
4418,0.0146484,0.026532,
4420,0.045166,0.0267761,
4422,-0.0244141,0.0269897,
4424,-0.00976563,0.0269409,
4426,-0.0427246,0.0269104,
4428,0.00732422,0.0269531,
4430,0.000610352,0.0268738,
4432,-0.0311279,0.0268066,
4434,-0.00976563,0.026532,
4436,0.0372314,0.0266113,
4438,-0.0299072,0.0266357,
4440,-0.0231934,0.0264404,
4442,0.0177002,0.0260559,
4444,-0.0250244,0.0260925,
4446,-0.0274658,0.0257996,
4448,-0.010376,0.0257324,
4450,-0.0805664,0.0262268,
4452,0.00854492,0.026239,
4454,-0.100098,0.0268799,
4456,-0.0476074,0.0268921,
4458,0.0268555,0.0266418,
4460,0.00610352,0.0259827,
4462,-0.0238037,0.025946,
4464,-0.0286865,0.026178,
4466,0.0146484,0.0262817,
4468,0.00671387,0.0263245,
4470,-0.0115967,0.0255615,
4472,0.0195313,0.0253357,
4474,0.0170898,0.0245605,
4476,-0.0213623,0.0243958,
4478,-0.00305176,0.0241516,
4480,0.00793457,0.0239868,
4482,-0.010376,0.0229919,
4484,-0.010376,0.0228333,
4486,-0.020752,0.0230103,
4488,-0.0415039,0.0227173,
4490,0.0158691,0.0226685,
4492,0.0195313,0.0228333,
4494,-0.0152588,0.0225647,
4496,-0.00610352,0.022345,
4498,0.0238037,0.0224976,
4500,-0.0170898,0.0226379,
4502,-0.0158691,0.0225098,
4504,-0.0115967,0.0224548,
4506,0.0012207,0.0223633,
4508,0,0.0221313,
4510,-0.0274658,0.0222839,
4512,0.0488281,0.0226501,
4514,-0.03479,0.0228638,
4516,-0.00610352,0.0223389,
4518,0.0500488,0.0227356,
4520,0.00976563,0.0222656,
4522,-0.0195313,0.0224182,
4524,-0.00915527,0.0224182,
4526,-0.0341797,0.0226929,
4528,0.000610352,0.0226746,
4530,-0.0201416,0.0223572,
4532,0.00427246,0.02229,
4534,-0.0360107,0.0225708,
4536,-0.00244141,0.0224915,
4538,0.00305176,0.0223694,
4540,0.0219727,0.0225464,
4542,-0.00488281,0.0221436,
4544,0.0457764,0.022345,
4546,-0.0366211,0.022699,
4548,-0.0256348,0.0228882,
4550,0.0311279,0.0230591,
4552,0.00854492,0.0228638,
4554,0.00610352,0.0226624,
4556,-0.00976563,0.0227356,
4558,-0.0213623,0.0229187,
4560,-0.00244141,0.022522,
4562,0.00854492,0.0223267,
4564,0.020752,0.021936,
4566,0.00427246,0.0217224,
4568,-0.0238037,0.0214783,
4570,0.0177002,0.0213257,
4572,0.00549316,0.0209839,
4574,0.010376,0.0204895,
4576,0.00549316,0.0205139,
4578,-0.0231934,0.0203735,
4580,-0.00488281,0.0202942,
4582,0.0109863,0.0201538,
4584,-0.00549316,0.0195862,
4586,-0.0231934,0.0198059,
4588,0.00183105,0.0198181,
4590,0.0109863,0.0196167,
4592,0.0262451,0.0196777,
4594,-0.0537109,0.0196411,
4596,0.0292969,0.0196167,
4598,0.0109863,0.0193481,
4600,-0.012207,0.0194214,
4602,0.00976563,0.0194092,
4604,-0.0128174,0.0192688,
4606,0.000610352,0.0189941,
4608,-0.022583,0.0191528,
4610,0.0311279,0.0194336,
4612,-0.0262451,0.0196106,
4614,-0.0183105,0.0196716,
4616,0.0378418,0.0197937,
4618,0.0512695,0.0201599,
4620,0.0109863,0.0198181,
4622,-0.0286865,0.0198608,
4624,0.0482178,0.0202454,
4626,0.0262451,0.0200806,
4628,0.0152588,0.0201599,
4630,-0.0268555,0.0204224,
4632,-0.0463867,0.020575,
4634,0.0109863,0.0205872,
4636,-0.00976563,0.0203125,
4638,-0.0317383,0.0203308,
4640,-0.0244141,0.020343,
4642,-0.0109863,0.0202759,
4644,-0.0231934,0.0202576,
4646,0.010376,0.0200867,
4648,0.00549316,0.0200378,
4650,-0.00366211,0.0192688,
4652,0.0115967,0.0192993,
4654,-0.043335,0.0187317,
4656,0.0012207,0.0182678,
4658,-0.000610352,0.0180054,
4660,0.00427246,0.0179871,
4662,-0.00183105,0.0177673,
4664,-0.0158691,0.0176392,
4666,0.0115967,0.0176086,
4668,0.0311279,0.0178528,
4670,-0.0384521,0.0181213,
4672,0.0164795,0.0180908,
4674,0.0195313,0.0181152,
4676,-0.0274658,0.0181763,
4678,0.00488281,0.0181946,
4680,0.0201416,0.0183167,
4682,-0.0128174,0.0183411,
4684,0.00793457,0.0183167,
4686,0.0317383,0.0184265,
4688,0.0231934,0.0182434,
4690,0.0537109,0.0186218,
4692,0.0170898,0.0185974,
4694,0.0256348,0.0187012,
4696,0.0152588,0.0187927,
4698,0.010376,0.0186584,
4700,0.0262451,0.01875,
4702,-0.0238037,0.0188293,
4704,-0.0494385,0.0192078,
4706,0.0299072,0.0194946,
4708,-0.0457764,0.0199524,
4710,-0.0256348,0.0199341,
4712,0.0012207,0.019458,
4714,0,0.0191101,
4716,0.0195313,0.0192444,
4718,0.0012207,0.0187561,
4720,-0.00366211,0.0186951,
4722,0.0341797,0.0188416,
4724,0.0305176,0.0190552,
4726,-0.0299072,0.0190125,
4728,-0.0384521,0.0193909,
4730,0.000610352,0.0191956,
4732,0.0299072,0.0194519,
4734,-0.0213623,0.0193054,
4736,-0.0213623,0.0194946,
4738,-0.0262451,0.0197266,
4740,0.0292969,0.0197998,
4742,0.022583,0.0199768,
4744,0.00671387,0.0195862,
4746,-0.00854492,0.0193054,
4748,-0.00976563,0.0191467,
4750,-0.0146484,0.0189819,
4752,0.00549316,0.0189514,
4754,-0.0402832,0.0192932,
4756,0.00549316,0.0192505,
4758,-0.0170898,0.0192078,
4760,0.0244141,0.0194275,
4762,0.0128174,0.0194702,
4764,-0.0128174,0.0193909,
4766,0.0158691,0.0195068,
4768,0.0524902,0.0197937,
4770,0.0317383,0.0199341,
4772,0.0274658,0.0201538,
4774,-0.0286865,0.0203369,
4776,0.00732422,0.0203552,
4778,0.0335693,0.020459,
4780,0.0115967,0.0205261,
4782,-0.0170898,0.0205872,
4784,0.00366211,0.0205688,
4786,0.00915527,0.0204285,
4788,-0.0152588,0.0205627,
4790,0.00671387,0.02052,
4792,0.0158691,0.0204163,
4794,0.0231934,0.0201111,
4796,0.00610352,0.0198792,
4798,0.0146484,0.0199158,
4800,0.0280762,0.0200745,
4802,0.00793457,0.0200562,
4804,0.00488281,0.0199768,
4806,0.00793457,0.02005,
4808,0.0219727,0.0200439,
4810,0.0158691,0.0198914,
4812,-0.0109863,0.0197388,
4814,0.0317383,0.019873,
4816,0.0140381,0.019635,
4818,-0.0628662,0.019751,
4820,0.0115967,0.0197571,
4822,0.0238037,0.0197083,
4824,-0.0134277,0.0193604,
4826,0.00488281,0.0191467,
4828,0.0238037,0.0192322,
4830,-0.0640869,0.0196045,
4832,0.00366211,0.0191772,
4834,0.0250244,0.0193176,
4836,-0.000610352,0.0192261,
4838,0.00488281,0.0189575,
4840,-0.00549316,0.0187683,
4842,-0.0244141,0.0189026,
4844,-0.0128174,0.0187988,
4846,0.0201416,0.0188965,
4848,-0.00366211,0.0188782,
4850,0.0183105,0.0190247,
4852,-0.0146484,0.0190552,
4854,0.0152588,0.0187744,
4856,0.010376,0.018866,
4858,-0.0012207,0.0188721,
4860,0.00732422,0.0189026,
4862,-0.00976563,0.0189819,
4864,0.00366211,0.0188599,
4866,0.0189209,0.0189331,
4868,0.00610352,0.0186829,
4870,-0.00183105,0.0183167,
4872,0.0323486,0.0184753,
4874,-0.020752,0.0184875,
4876,-0.00549316,0.0182678,
4878,0.00915527,0.0183105,
4880,0.00427246,0.0181519,
4882,0.0164795,0.0181885,
4884,0.0219727,0.0183289,
4886,-0.0140381,0.0181519,
4888,0.0482178,0.0184021,
4890,-0.0170898,0.0180359,
4892,0.022583,0.0180908,
4894,0.00366211,0.0178711,
4896,-0.00183105,0.0177368,
4898,-0.00671387,0.0177002,
4900,-0.000610352,0.0174438,
4902,-0.0109863,0.0173157,
4904,-0.0177002,0.0169983,
4906,-0.012207,0.0168213,
4908,0.020752,0.016571,
4910,0.0140381,0.0164551,
4912,-0.0219727,0.0166626,
4914,0.00488281,0.0167114,
4916,0.0152588,0.0166687,
4918,0.0146484,0.016803,
4920,0.00488281,0.0168152,
4922,0.0500488,0.0169739,
4924,-0.020752,0.0168762,
4926,0.010376,0.0166809,
4928,0.0158691,0.0164551,
4930,0.0170898,0.0166199,
4932,0.00305176,0.0163513,
4934,-0.0292969,0.0164307,
4936,-0.0183105,0.0164001,
4938,-0.00366211,0.0161743,
4940,-0.0115967,0.0159973,
4942,0.00976563,0.0158691,
4944,-0.00244141,0.0158264,
4946,-0.00427246,0.0157837,
4948,0.0256348,0.0159424,
4950,0.0390625,0.0161865,
4952,0.0109863,0.0162415,
4954,-0.032959,0.0161682,
4956,0.0323486,0.0164368,
4958,0.0238037,0.0165039,
4960,-0.0158691,0.0164185,
4962,-0.00305176,0.0163208,
4964,-0.0177002,0.0163696,
4966,0.012207,0.016333,
4968,0.0109863,0.015918,
4970,0.00549316,0.0156555,
4972,-0.00732422,0.0154541,
4974,-0.0115967,0.0152832,
4976,0.00854492,0.0152954,
4978,-0.0195313,0.015155,
4980,0.0012207,0.0150513,
4982,0.0134277,0.0150146,
4984,-0.012207,0.0151001,
4986,-0.00732422,0.0150818,
4988,-0.010376,0.015033,
4990,0.0262451,0.0152283,
4992,0.0262451,0.015332,
4994,0.00244141,0.0151245,
4996,0.0311279,0.0153748,
4998,-0.022583,0.0154541,
5000,0.0268555,0.0154419,
5002,0.0280762,0.0156433,
5004,-0.0164795,0.0157593,
5006,0.0213623,0.0158936,
5008,0.000610352,0.0156799,
5010,0.00366211,0.0155579,
5012,-0.0305176,0.0157532,
5014,-0.0115967,0.0155518,
5016,0.0274658,0.015686,
5018,-0.0158691,0.0152161,
5020,-0.0231934,0.015332,
5022,0.00793457,0.0151733,
5024,-0.0012207,0.0150513,
5026,0.0354004,0.0153564,
5028,-0.00793457,0.0151978,
5030,-0.00488281,0.0146057,
5032,-0.0164795,0.0147339,
5034,0.00244141,0.0145081,
5036,-0.000610352,0.0145081,
5038,-0.0360107,0.0148193,
5040,0.0292969,0.0150574,
5042,-0.00793457,0.0148926,
5044,-0.0152588,0.014917,
5046,-0.0219727,0.0149353,
5048,0.0305176,0.0152039,
5050,-0.010376,0.0151245,
5052,0.0164795,0.0151428,
5054,0.00854492,0.0150757,
5056,-0.0286865,0.0152588,
5058,0.0164795,0.0154114,
5060,0.0286865,0.015625,
5062,-0.0244141,0.0157715,
5064,0.0231934,0.0159668,
5066,-0.00549316,0.0158325,
5068,0.00610352,0.0158325,
5070,0.00854492,0.0158997,
5072,0.0170898,0.0157471,
5074,-0.00793457,0.0156189,
5076,0.0177002,0.015741,
5078,0.0335693,0.0159851,
5080,0.0152588,0.016095,
5082,0.0012207,0.0159424,
5084,0.0323486,0.0160461,
5086,0.043335,0.0163391,
5088,0.012207,0.015979,
5090,-0.0250244,0.0160583,
5092,-0.00610352,0.0158936,
5094,0.0720215,0.0165771,
5096,0.0299072,0.0168579,
5098,-0.00793457,0.0168701,
5100,0.0250244,0.0171143,
5102,-0.0195313,0.0171997,
5104,0.00732422,0.0170959,
5106,0.00305176,0.0170044,
5108,-0.0158691,0.0169556,
5110,-0.0512695,0.0173279,
5112,-0.0299072,0.0174072,
5114,-0.0183105,0.0175415,
5116,-0.0341797,0.0177307,
5118,-0.00549316,0.0176392,
5120,-0.00671387,0.0176575,
5122,-0.020752,0.0173645,
5124,-0.00610352,0.017218,
5126,0.0231934,0.0173462,
5128,-0.012207,0.0173096,
5130,-0.0140381,0.0172791,
5132,-0.00366211,0.0172852,
5134,0.0146484,0.0171387,
5136,0.0219727,0.0171753,
5138,0.012207,0.0172607,
5140,0.0384521,0.0175293,
5142,0.0341797,0.0177734,
5144,-0.00305176,0.0177795,
5146,0.0457764,0.0181946,
5148,0.0140381,0.0180786,
5150,0.0280762,0.0179688,
5152,-0.0518799,0.0183777,
5154,-0.0189209,0.0182373,
5156,0.0335693,0.0182495,
5158,0.0201416,0.0182129,
5160,-0.0482178,0.0185364,
5162,-0.032959,0.0188354,
5164,0.0708008,0.0193665,
5166,0.00244141,0.0192688,
5168,0.0457764,0.0196167,
5170,-0.0262451,0.0198242,
5172,-0.0134277,0.0198853,
5174,0.0354004,0.0201233,
5176,-0.0268555,0.0203064,
5178,-0.0152588,0.0202637,
5180,-0.03479,0.0205994,
5182,-0.0183105,0.0206482,
5184,0.0250244,0.0207764,
5186,-0.00183105,0.0207214,
5188,-0.0219727,0.0208374,
5190,-0.022583,0.0208008,
5192,0.010376,0.0206421,
5194,-0.0231934,0.0208496,
5196,-0.00488281,0.0205872,
5198,-0.020752,0.0205688,
5200,-0.0537109,0.0208374,
5202,0.00915527,0.0206482,
5204,0.00549316,0.0205383,
5206,-0.0250244,0.020575,
5208,0.0170898,0.0207397,
5210,-0.00976563,0.0208008,
5212,0.0164795,0.0206604,
5214,-0.00976563,0.0206421,
5216,0.0341797,0.0207092,
5218,-0.0195313,0.0207458,
5220,-0.012207,0.020636,
5222,0.00793457,0.020636,
5224,-0.0128174,0.020752,
5226,-0.00915527,0.0204895,
5228,0.010376,0.0205139,
5230,0.0164795,0.0206299,
5232,0.00305176,0.0204956,
5234,-0.00915527,0.0205627,
5236,0.0286865,0.0208435,
5238,0.0244141,0.0207275,
5240,0.00915527,0.0205261,
5242,-0.00610352,0.0205078,
5244,0.0354004,0.0207092,
5246,0.0537109,0.0210266,
5248,0.0286865,0.0210083,
5250,0.00610352,0.0209656,
5252,0.0354004,0.0211548,
5254,-0.010376,0.0211731,
5256,0.0183105,0.0210693,
5258,0.0177002,0.0210815,
5260,0.0366211,0.0211609,
5262,0.0238037,0.0211548,
5264,-0.0421143,0.021344,
5266,-0.00305176,0.0213196,
5268,-0.0213623,0.0214722,
5270,0.043335,0.0218201,
5272,-0.0299072,0.0219482,
5274,-0.0372314,0.0222412,
5276,-0.0274658,0.0223389,
5278,-0.0366211,0.0223694,
5280,-0.020752,0.0224243,
5282,-0.0177002,0.0225891,
5284,-0.0238037,0.0225037,
5286,-0.00488281,0.0221191,
5288,-0.0341797,0.0223389,
5290,0.00793457,0.022168,
5292,0.0274658,0.0223816,
5294,0.0280762,0.0219421,
5296,-0.00427246,0.0216858,
5298,-0.00488281,0.0216553,
5300,-0.00183105,0.0214233,
5302,0.0238037,0.0214661,
5304,0.00671387,0.02146,
5306,-0.00854492,0.0215149,
5308,-0.00183105,0.0213745,
5310,0.0201416,0.0210632,
5312,0.00183105,0.0207825,
5314,-0.00183105,0.0206177,
5316,0.0299072,0.020575,
5318,-0.00305176,0.0205505,
5320,0.010376,0.0205872,
5322,0.010376,0.0204834,
5324,-0.0201416,0.0206238,
5326,-0.0012207,0.0204041,
5328,0.00732422,0.0203552,
5330,-0.0177002,0.0203918,
5332,-0.00183105,0.0203735,
5334,-0.0012207,0.0202393,
5336,0.00183105,0.0200378,
5338,0.00183105,0.0199341,
5340,0.0115967,0.0196655,
5342,0.00488281,0.0193726,
5344,0.0140381,0.0194824,
5346,0.0177002,0.0192017,
5348,-0.00610352,0.0191223,
5350,-0.0140381,0.0189819,
5352,0.0219727,0.0186829,
5354,0.00244141,0.0185181,
5356,-0.0115967,0.0182983,
5358,-0.0134277,0.0182312,
5360,0.00305176,0.0177795,
5362,0.00854492,0.0175354,
5364,-0.0170898,0.0169983,
5366,0.00305176,0.0170044,
5368,0.0128174,0.0166748,
5370,0.00671387,0.0164795,
5372,-0.00671387,0.0164124,
5374,0.00244141,0.0160828,
5376,0.00427246,0.0158569,
5378,-0.00915527,0.0157959,
5380,0.00366211,0.0154846,
5382,0.00366211,0.0153381,
5384,-0.0012207,0.0151001,
5386,0.00244141,0.0151062,
5388,-0.00549316,0.0149414,
5390,0.00305176,0.0147461,
5392,0.00671387,0.0147095,
5394,0.0219727,0.0146973,
5396,0.00549316,0.0147034,
5398,-0.0109863,0.0146057,
5400,0.00366211,0.0141052,
5402,0.0256348,0.01427,
5404,0.0146484,0.0143616,
5406,-0.00793457,0.0141907,
5408,-0.0134277,0.0141541,
5410,0.00976563,0.0141541,
5412,0.00427246,0.014032,
5414,-0.00305176,0.0139648,
5416,-0.00244141,0.0136475,
5418,-0.00305176,0.0134827,
5420,-0.00732422,0.0134338,
5422,0.00305176,0.013385,
5424,0.000610352,0.0132629,
5426,-0.00244141,0.0131958,
5428,0.00549316,0.013147,
5430,-0.00671387,0.0130493,
5432,0.00671387,0.0130859,
5434,-0.0158691,0.0131531,
5436,0.000610352,0.0128723,
5438,0.000610352,0.0126343,
5440,-0.00244141,0.0125671,
5442,0.00183105,0.0125244,
5444,-0.0146484,0.0123169,
5446,-0.000610352,0.0117859,
5448,-0.00427246,0.0115417,
5450,-0.00671387,0.0115479,
5452,-0.00244141,0.0112183,
5454,-0.00549316,0.0111694,
5456,-0.00549316,0.0110413,
5458,-0.00488281,0.0109131,
5460,-0.00244141,0.0105713,
5462,0,0.0103333,
5464,0.000610352,0.00991821,
5466,0.00305176,0.00991821,
5468,0.00915527,0.00979614,
5470,0.0128174,0.00949097,
5472,0.00549316,0.00924683,
5474,-0.00854492,0.00895996,
5476,0.012207,0.00880737,
5478,0.012207,0.00856323,
5480,-0.0012207,0.00836792,
5482,-0.00183105,0.00820923,
5484,-0.0109863,0.00808105,
5486,0.00610352,0.00809326,
5488,0,0.00775146,
5490,0.00183105,0.00769043,
5492,-0.0195313,0.00761108,
5494,-0.00671387,0.00739746,
5496,0.00976563,0.00745239,
5498,-0.00793457,0.00748291,
5500,0.010376,0.00756836,
5502,-0.00915527,0.00742187,
5504,-0.0146484,0.00750122,
5506,0.0134277,0.00755005,
5508,0.020752,0.00773926,
5510,-0.00305176,0.00756836,
5512,-0.0323486,0.00787354,
5514,-0.00549316,0.00791016,
5516,-0.00305176,0.0076416,
5518,-0.0213623,0.00782471,
5520,-0.0231934,0.00795288,
5522,-0.0323486,0.00817261,
5524,-0.0231934,0.00820313,
5526,-0.0256348,0.00844727,
5528,-0.020752,0.00858154,
5530,-0.0128174,0.00853271,
5532,-0.0183105,0.00869751,
5534,-0.0158691,0.00884399,
5536,-0.00915527,0.00891724,
5538,-0.0177002,0.00907593,
5540,-0.012207,0.00908203,
5542,-0.00915527,0.00912476,
5544,-0.00976563,0.00908203,
5546,-0.00610352,0.00896606,
5548,-0.0164795,0.00906982,
5550,-0.0158691,0.00908813,
5552,-0.0109863,0.00897827,
5554,-0.0134277,0.00908813,
5556,-0.0140381,0.00911255,
5558,-0.0189209,0.00916748,
5560,-0.0195313,0.00933228,
5562,-0.0177002,0.00942383,
5564,-0.0164795,0.00941772,
5566,-0.0183105,0.00957031,
5568,-0.0195313,0.00963745,
5570,-0.0170898,0.00974121,
5572,-0.0280762,0.00995483,
5574,-0.0231934,0.0101624,
5576,-0.03479,0.0104675,
5578,-0.0323486,0.0106995,
5580,-0.0378418,0.0110413,
5582,-0.0360107,0.0113647,
5584,-0.0506592,0.0118591,
5586,-0.0427246,0.012262,
5588,-0.0488281,0.0126953,
5590,-0.0585938,0.0132507,
5592,-0.0592041,0.0137756,
5594,-0.065918,0.0142151,
5596,-0.0384521,0.0145447,
5598,-0.0653076,0.0150879,
5600,-0.0817871,0.0158691,
5602,-0.078125,0.016394,
5604,-0.0714111,0.0169617,
5606,-0.0750732,0.0176331,
5608,-0.0842285,0.0183411,
5610,-0.0976563,0.01922,
5612,-0.105591,0.0202332,
5614,-0.100098,0.0212036,
5616,-0.100708,0.0221863,
5618,-0.114746,0.0233032,
5620,-0.109863,0.0243286,
5622,-0.117188,0.02547,
5624,-0.114746,0.0266113,
5626,-0.123291,0.0278198,
5628,-0.122681,0.0289917,
5630,-0.118408,0.0301086,
5632,-0.139771,0.0314392,
5634,-0.13855,0.032666,
5636,-0.141602,0.0340759,
5638,-0.142822,0.035498,
5640,-0.160522,0.0370789,
5642,-0.161743,0.038678,
5644,-0.167236,0.0402039,
5646,-0.174561,0.0419434,
5648,-0.185547,0.0437561,
5650,-0.192261,0.0456116,
5652,-0.204468,0.0476318,
5654,-0.213013,0.049707,
5656,-0.20874,0.0517395,
5658,-0.233765,0.0540283,
5660,-0.241089,0.0564148,
5662,-0.24353,0.0588501,
5664,-0.253906,0.0613831,
5666,-0.259399,0.0639465,
5668,-0.279541,0.0666504,
5670,-0.281372,0.0693359,
5672,-0.301514,0.0722961,
5674,-0.288696,0.0750977,
5676,-0.317383,0.0781494,
5678,-0.325928,0.0812866,
5680,-0.322876,0.0845032,
5682,-0.328369,0.0877686,
5684,-0.310059,0.0907593,
5686,-0.353394,0.0942322,
5688,-0.351563,0.0977478,
5690,-0.331421,0.101044,
5692,-0.338135,0.10423,
5694,-0.360718,0.10777,
5696,-0.330811,0.11098,
5698,-0.332031,0.114221,
5700,-0.357056,0.117688,
5702,-0.332642,0.120923,
5704,-0.324707,0.124023,
5706,-0.339355,0.127283,
5708,-0.338745,0.130463,
5710,-0.330811,0.13374,
5712,-0.338135,0.136798,
5714,-0.343628,0.140179,
5716,-0.345459,0.143604,
5718,-0.343018,0.14682,
5720,-0.348511,0.150073,
5722,-0.343018,0.15318,
5724,-0.348511,0.156433,
5726,-0.34729,0.15965,
5728,-0.354004,0.162982,
5730,-0.338745,0.166241,
5732,-0.343628,0.169495,
5734,-0.332642,0.172662,
5736,-0.325928,0.17583,
5738,-0.313721,0.17879,
5740,-0.293579,0.181604,
5742,-0.283203,0.184344,
5744,-0.269775,0.186945,
5746,-0.252075,0.189404,
5748,-0.245361,0.191693,
5750,-0.228882,0.193823,
5752,-0.205078,0.195764,
5754,-0.186768,0.197498,
5756,-0.181885,0.199176,
5758,-0.150146,0.200488,
5760,-0.133667,0.20163,
5762,-0.111694,0.20257,
5764,-0.0872803,0.203278,
5766,-0.0689697,0.203784,
5768,-0.0457764,0.204047,
5770,-0.020752,0.204083,
5772,-0.00854492,0.203888,
5774,0.0482178,0.204138,
5776,0.0549316,0.20434,
5778,0.0549316,0.204565,
5780,0.0738525,0.204926,
5782,0.0860596,0.205426,
5784,0.130005,0.206219,
5786,0.132446,0.207117,
5788,0.10498,0.207678,
5790,0.10376,0.20813,
5792,0.142822,0.208966,
5794,0.143433,0.209741,
5796,0.137329,0.21073,
5798,0.146484,0.211542,
5800,0.15564,0.21228,
5802,0.135498,0.212854,
5804,0.159302,0.213733,
5806,0.165405,0.214636,
5808,0.167236,0.215466,
5810,0.15625,0.216052,
5812,0.158081,0.216577,
5814,0.160522,0.217181,
5816,0.161133,0.217786,
5818,0.159912,0.218237,
5820,0.152588,0.218665,
5822,0.150146,0.218994,
5824,0.150757,0.219354,
5826,0.142822,0.21955,
5828,0.148926,0.219812,
5830,0.143433,0.220062,
5832,0.133057,0.219995,
5834,0.130005,0.21991,
5836,0.131836,0.219812,
5838,0.141602,0.2198,
5840,0.134277,0.219537,
5842,0.142212,0.219342,
5844,0.144653,0.219116,
5846,0.137329,0.218744,
5848,0.128174,0.21817,
5850,0.144653,0.217694,
5852,0.150146,0.217151,
5854,0.119629,0.216217,
5856,0.154419,0.215674,
5858,0.120239,0.214539,
5860,0.0872803,0.213,
5862,0.0592041,0.211157,
5864,0.12146,0.209833,
5866,0.0842285,0.208081,
5868,0.0598145,0.205884,
5870,0.0720215,0.20379,
5872,0.0500488,0.201276,
5874,0.0836182,0.199225,
5876,0.0665283,0.196716,
5878,0.0909424,0.194366,
5880,0.0994873,0.192133,
5882,0.090332,0.189752,
5884,0.101318,0.187665,
5886,0.12085,0.185339,
5888,0.117188,0.182996,
5890,0.0976563,0.180658,
5892,0.0921631,0.178198,
5894,0.067749,0.175269,
5896,0.0866699,0.172827,
5898,0.128784,0.170795,
5900,0.000610352,0.16723,
5902,0.0189209,0.164093,
5904,0.0469971,0.161316,
5906,0.0378418,0.158301,
5908,0.0360107,0.155273,
5910,0.0213623,0.152179,
5912,0.0323486,0.149121,
5914,0.0445557,0.14613,
5916,0.0488281,0.143164,
5918,0.0488281,0.140222,
5920,0.055542,0.137292,
5922,0.0549316,0.134412,
5924,0.0622559,0.131549,
5926,0.0665283,0.128741,
5928,0.0628662,0.12583,
5930,0.0860596,0.123303,
5932,0.0213623,0.120081,
5934,0.0744629,0.117499,
5936,0.057373,0.114813,
5938,0.0494385,0.11217,
5940,0.0488281,0.109723,
5942,0.0476074,0.107367,
5944,0.0463867,0.105133,
5946,0.0506592,0.103119,
5948,0.0506592,0.101172,
5950,0.0537109,0.0994202,
5952,0.0531006,0.0979004,
5954,0.0518799,0.0965515,
5956,0.0506592,0.0952393,
5958,0.0476074,0.0942139,
5960,0.0457764,0.093335,
5962,0.043335,0.0926514,
5964,0.045166,0.0922302,
5966,0.0445557,0.0919861,
5968,0.0469971,0.0919983,
5970,0.045166,0.0922424,
5972,0.0488281,0.0926453,
5974,0.0482178,0.0926453,
5976,0.0512695,0.0926086,
5978,0.0372314,0.0924316,
5980,0.0384521,0.0920776,
5982,0.0390625,0.0916077,
5984,0.0366211,0.0906738,
5986,0.0341797,0.0896912,
5988,0.0299072,0.0889404,
5990,0.0360107,0.0882629,
5992,0.0292969,0.0871277,
5994,0.0421143,0.0861145,
5996,0.0292969,0.0850342,
5998,0.0390625,0.08396,
6000,0.0378418,0.082782,
6002,0.0274658,0.0817017,
6004,0.0305176,0.0804138,
6006,0.0354004,0.0791138,
6008,0.0231934,0.0776733,
6010,0.0341797,0.0764526,
6012,0.0201416,0.0750732,
6014,0.0494385,0.0739624,
6016,0.0531006,0.0728821,
6018,0.00244141,0.0713074,
6020,0.0311279,0.0700928,
6022,0.0372314,0.0689636,
6024,0.0317383,0.0677734,
6026,0.03479,0.0666931,
6028,0.00732422,0.0652771,
6030,0.0201416,0.0640442,
6032,0.0189209,0.0629028,
6034,0.0158691,0.0617615,
6036,0.0299072,0.0607422,
6038,0.0152588,0.0594788,
6040,0.0177002,0.058313,
6042,0.0323486,0.0572144,
6044,0.0164795,0.0559326,
6046,0.0244141,0.0548035,
6048,0.0299072,0.0538208,
6050,0.032959,0.0527039,
6052,0.03479,0.0515503,
6054,0.0299072,0.0506531,
6056,0.0183105,0.049292,
6058,0.0317383,0.048407,
6060,0.0317383,0.0478516,
6062,0.0158691,0.0474182,
6064,0.0177002,0.0463806,
6066,0.0219727,0.0457581,
6068,0.0189209,0.0453491,
6070,0.0408936,0.0450378,
6072,0.0463867,0.0450012,
6074,0.0958252,0.0451233,
6076,0.0335693,0.0447937,
6078,-0.0231934,0.0441162,
6080,0.0549316,0.0436707,
6082,0.0408936,0.0431763,
6084,0.012207,0.0422852,
6086,-0.0195313,0.041272,
6088,-0.0177002,0.0402771,
6090,-0.0152588,0.0394531,
6092,0.0109863,0.0386414,
6094,0.0262451,0.0382263,
6096,0.0231934,0.0375916,
6098,0.0189209,0.0364929,
6100,0.0305176,0.036792,
6102,0.0219727,0.0368225,
6104,0.0134277,0.0364868,
6106,0.0177002,0.0362854,
6108,0.00854492,0.0360107,
6110,0.0152588,0.0359497,
6112,0.00915527,0.0357178,
6114,0.022583,0.035498,
6116,0.00793457,0.0350891,
6118,0.0183105,0.0347839,
6120,0.0231934,0.0344604,
6122,0.0244141,0.0341553,
6124,0.0360107,0.0338928,
6126,0.0183105,0.0334106,
6128,0.00732422,0.0328552,
6130,0.0219727,0.0322144,
6132,0.0305176,0.0323059,
6134,0.0115967,0.0316772,
6136,0.0134277,0.0312378,
6138,0.0292969,0.0310364,
6140,0.0244141,0.0307922,
6142,0.0396729,0.0307129,
6144,0.0183105,0.0304321,
6146,-0.00732422,0.0299988,
6148,0.0213623,0.0297058,
6150,0.0384521,0.0295532,
6152,0.000610352,0.0290283,
6154,-0.0115967,0.0286255,
6156,0.00671387,0.028186,
6158,-0.0146484,0.0278564,
6160,-0.0109863,0.0275085,
6162,-0.00549316,0.0271301,
6164,0.0152588,0.0268311,
6166,0.0140381,0.0265259,
6168,0.010376,0.0261597,
6170,0.0518799,0.0262268,
6172,0.113525,0.0268738,
6174,0.0012207,0.0264038,
6176,-0.0311279,0.0262024,
6178,0.0964355,0.0267944,
6180,0.0189209,0.0265991,
6182,-0.0183105,0.0263916,
6184,-0.0262451,0.0262878,
6186,-0.0360107,0.0263062,
6188,-0.0408936,0.026416,
6190,-0.0305176,0.0263611,
6192,-0.03479,0.026416,
6194,-0.0219727,0.0262146,
6196,-0.0213623,0.0261353,
6198,-0.00488281,0.0257935,
6200,-0.0158691,0.0255737,
6202,-0.00549316,0.025354,
6204,-0.00732422,0.0251221,
6206,-0.00366211,0.0248047,
6208,-0.00549316,0.0246277,
6210,0.0164795,0.0244507,
6212,-0.000610352,0.0242554,
6214,0.0115967,0.023877,
6216,0.00915527,0.0234375,
6218,0.0170898,0.023584,
6220,0.0140381,0.0234131,
6222,0.00488281,0.0230896,
6224,0.0152588,0.0229248,
6226,0.012207,0.022699,
6228,0.0115967,0.0227417,
6230,0.0134277,0.0226746,
6232,0.00732422,0.0225586,
6234,0.00366211,0.0224365,
6236,0.00549316,0.0221924,
6238,0.0152588,0.0221924,
6240,0.0134277,0.0221497,
6242,0.00244141,0.0218506,
6244,0.0109863,0.0217957,
6246,0.00915527,0.0216431,
6248,-0.00732422,0.0214172,
6250,0.00183105,0.021106,
6252,0.0134277,0.0208923,
6254,-0.00244141,0.0206177,
6256,-0.0183105,0.0206177,
6258,-0.0128174,0.0204285,
6260,-0.00549316,0.020166,
6262,-0.00183105,0.0200256,
6264,-0.00671387,0.0199158,
6266,0.00183105,0.0197144,
6268,-0.00854492,0.0196106,
6270,0.0012207,0.0192139,
6272,-0.00671387,0.0188171,
6274,0.00305176,0.0178894,
6276,0.010376,0.0176575,
6278,-0.0170898,0.0175964,
6280,-0.000610352,0.0170532,
6282,0.00427246,0.016687,
6284,0.00610352,0.016626,
6286,0.000610352,0.0164368,
6288,-0.00671387,0.0163269,
6290,-0.00976563,0.016272,
6292,-0.0115967,0.0162781,
6294,-0.00183105,0.0160339,
6296,-0.000610352,0.0158081,
6298,-0.00610352,0.0156799,
6300,-0.00244141,0.0153992,
6302,0.00854492,0.0152649,
6304,-0.00610352,0.0151917,
6306,-0.00305176,0.0150452,
6308,0.00976563,0.0150574,
6310,-0.00793457,0.0149841,
6312,0.00671387,0.0149597,
6314,-0.00427246,0.0147766,
6316,0.0158691,0.014856,
6318,0.0164795,0.0148376,
6320,-0.0128174,0.0147339,
6322,0.0195313,0.0146851,
6324,0,0.014325,
6326,0.0164795,0.0143066,
6328,0.00732422,0.0143066,
6330,-0.0134277,0.0142212,
6332,-0.0183105,0.0140991,
6334,-0.00244141,0.0140076,
6336,-0.00976563,0.0139709,
6338,0.00366211,0.0137146,
6340,-0.0195313,0.0136658,
6342,-0.0201416,0.0134705,
6344,-0.00915527,0.0133789,
6346,0.00427246,0.0133484,
6348,-0.00976563,0.0132324,
6350,-0.0238037,0.0130859,
6352,-0.012207,0.0132019,
6354,0.0585938,0.0136719,
6356,0.0567627,0.0141724,
6358,-0.0415039,0.0144409,
6360,-0.00183105,0.0143494,
6362,0.03479,0.0146423,
6364,0.0238037,0.0147278,
6366,-0.0439453,0.0150269,
6368,-0.0360107,0.0152832,
6370,-0.020752,0.0149719,
6372,-0.0238037,0.0140747,
6374,-0.0390625,0.0144531,
6376,-0.0280762,0.0144226,
6378,-0.0152588,0.0136108,
6380,0.00976563,0.0135193,
6382,-0.00488281,0.013385,
6384,-0.00854492,0.013208,
6386,-0.022583,0.0130737,
6388,-0.00305176,0.0126953,
6390,-0.00915527,0.0124817,
6392,-0.0177002,0.0123108,
6394,0.0128174,0.0122192,
6396,-0.020752,0.0122131,
6398,0.00976563,0.012262,
6400,-0.0128174,0.0122314,
6402,0.00244141,0.0122009,
6404,0.00732422,0.0122009,
6406,0.0268555,0.0124329,
6408,-0.0109863,0.0124878,
6410,-0.0177002,0.0125,
6412,-0.00366211,0.0125305,
6414,0.00305176,0.0124451,
6416,-0.00854492,0.012439,
6418,-0.00976563,0.0123657,
6420,-0.00854492,0.0123108,
6422,-0.00671387,0.0123291,
6424,0.00549316,0.0122314,
6426,-0.00915527,0.0122009,
6428,0.00976563,0.0121826,
6430,-0.00305176,0.0120789,
6432,-0.00183105,0.0120239,
6434,-0.00183105,0.0120056,
6436,0.00915527,0.0120422,
6438,-0.00854492,0.0119751,
6440,-0.00305176,0.0118713,
6442,-0.00854492,0.0119324,
6444,0.00549316,0.0118774,
6446,0.0146484,0.0119324,
6448,0.0238037,0.0120972,
6450,0.00915527,0.0121704,
6452,-0.0238037,0.0122742,
6454,0.0134277,0.012384,
6456,0.00427246,0.0122437,
6458,0.0219727,0.0123352,
6460,-0.0146484,0.0124268,
6462,-0.0012207,0.0124207,
6464,-0.0146484,0.0125,
6466,0.0134277,0.012616,
6468,-0.00488281,0.0125793,
6470,0.0158691,0.0127258,
6472,-0.00976563,0.0127563,
6474,0.0012207,0.012738,
6476,0.00610352,0.0126953,
6478,0.00732422,0.0125977,
6480,-0.0140381,0.0127319,
6482,-0.00366211,0.0127258,
6484,0.00915527,0.0127563,
6486,-0.00183105,0.0127686,
6488,0.0012207,0.0127136,
6490,0.00549316,0.0126709,
6492,0.0012207,0.0125671,
6494,0.00366211,0.0125854,
6496,0.00244141,0.0126038,
6498,0.0012207,0.0125549,
6500,0.0012207,0.0125427,
6502,0.012207,0.0125793,
6504,0.0109863,0.0126282,
6506,-0.00976563,0.0126953,
6508,0.0128174,0.0127258,
6510,0.0115967,0.0127625,
6512,0.0128174,0.0128235,
6514,-0.00183105,0.0127991,
6516,-0.00305176,0.0126709,
6518,0.00183105,0.0125244,
6520,0.00671387,0.0124634,
6522,0.0341797,0.0126099,
6524,-0.0219727,0.0128296,
6526,-0.0280762,0.0129456,
6528,0.0213623,0.0130859,
6530,0.00732422,0.0130249,
6532,0.0152588,0.0129944,
6534,-0.022583,0.0131958,
6536,-0.00244141,0.0131226,
6538,-0.00610352,0.013147,
6540,-0.00671387,0.0130188,
6542,-0.0134277,0.0129517,
6544,-0.00793457,0.0129395,
6546,-0.0109863,0.0130066,
6548,-0.0164795,0.0130737,
6550,-0.0158691,0.0129944,
6552,-0.0128174,0.0130005,
6554,-0.00671387,0.0124817,
6556,-0.00732422,0.0119873,
6558,-0.00671387,0.0116394,
6560,-0.0109863,0.011731,
6562,0.00244141,0.0114075,
6564,0.0134277,0.0113037,
6566,-0.012207,0.0109863,
6568,-0.0012207,0.0106384,
6570,0.00671387,0.010498,
6572,-0.00244141,0.0102844,
6574,0.00244141,0.00991821,
6576,-0.00488281,0.00968628,
6578,-0.00488281,0.00958252,
6580,-0.00366211,0.00952148,
6582,-0.00793457,0.009552,
6584,0.0115967,0.00958252,
6586,-0.0146484,0.00950317,
6588,-0.0152588,0.00962524,
6590,0.022583,0.00975952,
6592,0.0140381,0.0097229,
6594,0.0189209,0.00978394,
6596,-0.0262451,0.00983887,
6598,0.00427246,0.00978394,
6600,0.0109863,0.00976563,
6602,0.0109863,0.00985107,
6604,-0.00183105,0.00979614,
6606,-0.00488281,0.00957642,
6608,0.0012207,0.00947876,
6610,-0.0146484,0.00944824,
6612,-0.0158691,0.00957031,
6614,-0.00732422,0.00961304,
6616,0.0109863,0.00963745,
6618,0.00732422,0.00961304,
6620,-0.0183105,0.00971069,
6622,-0.0286865,0.00993042,
6624,0.00427246,0.00991821,
6626,0.00976563,0.00992432,
6628,-0.00427246,0.00986938,
6630,-0.0189209,0.0100281,
6632,-0.0109863,0.0101196,
6634,-0.0134277,0.0102356,
6636,-0.00488281,0.0101929,
6638,-0.0177002,0.0102844,
6640,-0.012207,0.010376,
6642,-0.0140381,0.0104309,
6644,-0.00915527,0.0104675,
6646,-0.00549316,0.010376,
6648,-0.010376,0.0102417,
6650,-0.0109863,0.01026,
6652,-0.00793457,0.0101013,
6654,0,0.00996704,
6656,-0.00305176,0.00995483,
6658,-0.00366211,0.00977173,
6660,-0.00793457,0.00970459,
6662,-0.00427246,0.00973511,
6664,-0.00305176,0.00961914,
6666,-0.0128174,0.00961304,
6668,-0.00610352,0.00962524,
6670,-0.00610352,0.00952759,
6672,0,0.00942993,
6674,-0.00488281,0.00946655,
6676,0.010376,0.00950928,
6678,-0.00366211,0.00947266,
6680,-0.0164795,0.00949707,
6682,0.00305176,0.00949097,
6684,0.022583,0.00962524,
6686,-0.0213623,0.00982056,
6688,-0.0213623,0.010022,
6690,0.0012207,0.00997925,
6692,0.00366211,0.0100037,
6694,-0.0250244,0.0102173,
6696,-0.0250244,0.0104431,
6698,0.0183105,0.010614,
6700,-0.00671387,0.0106689,
6702,0.0274658,0.0108215,
6704,-0.0177002,0.0108887,
6706,-0.0408936,0.0112,
6708,0.0115967,0.0111877,
6710,0.00183105,0.0110901,
6712,-0.0177002,0.0111389,
6714,-0.00976563,0.0112183,
6716,-0.0238037,0.0114258,
6718,-0.0140381,0.0115479,
6720,0.00244141,0.0115051,
6722,-0.00183105,0.0111816,
6724,-0.020752,0.0111694,
6726,-0.00488281,0.0109375,
6728,0.00610352,0.0107849,
6730,-0.00976563,0.0108093,
6732,-0.032959,0.0109863,
6734,-0.0164795,0.0109253,
6736,0.0109863,0.0110107,
6738,-0.020752,0.0111572,
6740,-0.0109863,0.0112,
6742,-0.0286865,0.0113525,
6744,-0.00488281,0.011322,
6746,-0.00305176,0.0112427,
6748,-0.0146484,0.0112244,
6750,-0.0115967,0.0111816,
6752,-0.0109863,0.0111633,
6754,-0.0317383,0.0114136,
6756,0.00671387,0.0114075,
6758,-0.0164795,0.0115051,
6760,-0.00549316,0.0114502,
6762,-0.00244141,0.0114502,
6764,-0.0280762,0.0115967,
6766,-0.00549316,0.0115295,
6768,-0.00610352,0.0115784,
6770,0.0134277,0.0116455,
6772,0.00549316,0.011676,
6774,0.000610352,0.0116577,
6776,-0.0286865,0.0118958,
6778,-0.000610352,0.011853,
6780,0.00976563,0.0119141,
6782,-0.0012207,0.0118469,
6784,-0.0164795,0.0118958,
6786,-0.00488281,0.0117981,
6788,-0.00732422,0.0117188,
6790,0.0402832,0.0118958,
6792,-0.0238037,0.0119934,
6794,-0.0213623,0.0120178,
6796,0.00366211,0.011792,
6798,0.00183105,0.0117676,
6800,-0.00915527,0.0117493,
6802,-0.0317383,0.0119568,
6804,-0.0341797,0.0122803,
6806,-0.0115967,0.0123474,
6808,-0.0170898,0.0125061,
6810,-0.0305176,0.0126648,
6812,-0.00732422,0.0125793,
6814,0.00183105,0.0125244,
6816,-0.00793457,0.0124939,
6818,-0.00976563,0.0125183,
6820,-0.010376,0.012439,
6822,-0.012207,0.0122742,
6824,-0.00244141,0.0122559,
6826,-0.00366211,0.0121948,
6828,-0.00488281,0.0122009,
6830,-0.00488281,0.0120605,
6832,0,0.0119507,
6834,0.00183105,0.0118347,
6836,0.00488281,0.0118347,
6838,-0.0164795,0.0118225,
6840,-0.00183105,0.0117188,
6842,-0.00183105,0.0115967,
6844,-0.00671387,0.0115723,
6846,-0.00671387,0.0115845,
6848,-0.00427246,0.0115234,
6850,0.0146484,0.0115601,
6852,-0.012207,0.0116028,
6854,0.0012207,0.011615,
6856,-0.00732422,0.0116577,
6858,0.0219727,0.0118408,
6860,-0.00671387,0.0118286,
6862,-0.010376,0.0118896,
6864,0.00488281,0.011908,
6866,-0.0201416,0.0119812,
6868,0.00671387,0.0119873,
6870,-0.0140381,0.0120667,
6872,0,0.0120667,
6874,-0.00915527,0.0121094,
6876,0.00305176,0.0120361,
6878,0.0268555,0.0122681,
6880,-0.0012207,0.0121155,
6882,-0.0280762,0.0123657,
6884,0.0354004,0.0124939,
6886,-0.0177002,0.0124573,
6888,-0.0115967,0.0123596,
6890,-0.00488281,0.0123962,
6892,-0.00366211,0.0123962,
6894,0.00732422,0.0122192,
6896,-0.0256348,0.0122253,
6898,-0.0140381,0.0121826,
6900,0.0012207,0.0121277,
6902,0.00549316,0.011908,
6904,-0.00610352,0.011792,
6906,-0.012207,0.0115051,
6908,0.00305176,0.0114197,
6910,-0.00244141,0.0114258,
6912,0.00305176,0.0112793,
6914,-0.00549316,0.0112366,
6916,-0.00366211,0.0110352,
6918,-0.00610352,0.0109558,
6920,0.000610352,0.0109375,
6922,-0.00915527,0.0110107,
6924,0.00427246,0.0108459,
6926,-0.00915527,0.0108887,
6928,0.00183105,0.0108459,
6930,0.000610352,0.0107544,
6932,-0.00366211,0.0104614,
6934,-0.00427246,0.0103394,
6936,0.00610352,0.0102905,
6938,0.00488281,0.0101318,
6940,0.00366211,0.0100586,
6942,0.00366211,0.00980835,
6944,0.00183105,0.00977783,
6946,0.000610352,0.00975342,
6948,0,0.00960693,
6950,0.010376,0.00959473,
6952,0.0012207,0.00949707,
6954,-0.00854492,0.00926514,
6956,-0.00488281,0.00924683,
6958,-0.00183105,0.00910034,
6960,-0.000610352,0.00905151,
6962,0.00427246,0.00906982,
6964,-0.00732422,0.0088623,
6966,-0.00671387,0.00887451,
6968,0.00366211,0.0088501,
6970,-0.00366211,0.00875244,
6972,0.00854492,0.00878296,
6974,0.0457764,0.00923462,
6976,-0.00244141,0.00897217,
6978,-0.0366211,0.00933228,
6980,0.00854492,0.00932007,
6982,0.0280762,0.00958862,
6984,-0.00732422,0.00949707,
6986,-0.00366211,0.00948486,
6988,-0.0170898,0.00958252,
6990,-0.00305176,0.00921021,
6992,-0.0134277,0.00910645,
6994,-0.0012207,0.00890503,
6996,0.0164795,0.0090332,
6998,-0.0262451,0.00927734,
7000,0.00366211,0.00922241,
7002,0.00488281,0.00895386,
7004,0.00793457,0.00869141,
7006,-0.0183105,0.00875854,
7008,0.00427246,0.00863037,
7010,0.00793457,0.00840454,
7012,-0.00793457,0.00841064,
7014,-0.00854492,0.00847778,
7016,-0.00183105,0.00841675,
7018,-0.00244141,0.00834351,
7020,-0.00183105,0.00825806,
7022,-0.00854492,0.00822144,
7024,-0.00183105,0.00821533,
7026,-0.000610352,0.00818481,
7028,-0.00305176,0.0081665,
7030,-0.012207,0.00823975,
7032,0.0177002,0.00841675,
7034,0.00915527,0.00848999,
7036,0.00427246,0.00848389,
7038,0.00244141,0.00834351,
7040,-0.00488281,0.00837402,
7042,-0.0012207,0.00836792,
7044,-0.00671387,0.00836792,
7046,-0.00549316,0.00835571,
7048,-0.0158691,0.00847168,
7050,-0.0183105,0.0085083,
7052,-0.00793457,0.00846558,
7054,-0.00915527,0.00854492,
7056,-0.00183105,0.00848999,
7058,0.020752,0.00847778,
7060,0.0305176,0.00871582,
7062,0,0.00861206,
7064,-0.0189209,0.00875244,
7066,0.0195313,0.00874634,
7068,-0.00244141,0.00870361,
7070,-0.0012207,0.00857544,
7072,-0.0280762,0.0088562,
7074,-0.020752,0.00897217,
7076,-0.00671387,0.00900879,
7078,-0.00915527,0.00883179,
7080,-0.00976563,0.00891724,
7082,-0.00671387,0.00870361,
7084,0.010376,0.00845337,
7086,0.00732422,0.00834961,
7088,-0.0115967,0.00834961,
7090,0.00427246,0.00834351,
7092,0.00915527,0.00839844,
7094,-0.0115967,0.00844116,
7096,0.0250244,0.00843506,
7098,-0.0219727,0.0085144,
7100,-0.00610352,0.00856323,
7102,0.00976563,0.00860596,
7104,0.00549316,0.00859985,
7106,-0.0128174,0.00860596,
7108,0.00488281,0.00862427,
7110,0.0115967,0.00871582,
7112,-0.012207,0.00880737,
7114,0.00305176,0.00878296,
7116,-0.00183105,0.00876465,
7118,0.00549316,0.00875854,
7120,-0.00366211,0.00878906,
7122,0.000610352,0.00870361,
7124,0.00549316,0.00871582,
7126,-0.0146484,0.00877075,
7128,-0.0177002,0.00892944,
7130,0.00427246,0.00896606,
7132,0.00610352,0.00899048,
7134,-0.00244141,0.00897217,
7136,-0.00610352,0.00897217,
7138,-0.00854492,0.00900879,
7140,0.000610352,0.00897827,
7142,0.00488281,0.00899048,
7144,-0.0012207,0.00898438,
7146,-0.000610352,0.00898438,
7148,0.022583,0.00921021,
7150,0.00366211,0.00914307,
7152,-0.00732422,0.0092041,
7154,0.00793457,0.009198,
7156,-0.010376,0.00925293,
7158,0.00488281,0.00928345,
7160,-0.00854492,0.00936279,
7162,-0.0146484,0.00946655,
7164,-0.00183105,0.00941162,
7166,0.00427246,0.00938721,
7168,-0.0109863,0.00946045,
7170,-0.0152588,0.00957642,
7172,0.00854492,0.00957642,
7174,0.0152588,0.00927124,
7176,0.00244141,0.00927124,
7178,-0.00427246,0.00894775,
7180,-0.00915527,0.00895386,
7182,-0.00427246,0.00871582,
7184,0.012207,0.00876465,
7186,0.00488281,0.00877686,
7188,-0.0140381,0.00874634,
7190,-0.0134277,0.0088501,
7192,0.00793457,0.00879517,
7194,-0.00671387,0.0088501,
7196,-0.000610352,0.00869141,
7198,-0.00427246,0.00847168,
7200,-0.0109863,0.00854492,
7202,-0.00549316,0.00855103,
7204,-0.00305176,0.0085022,
7206,-0.0115967,0.00843506,
7208,0.00610352,0.00845337,
7210,-0.0128174,0.0085022,
7212,-0.00488281,0.00847168,
7214,0.00671387,0.00845337,
7216,-0.00427246,0.00847778,
7218,0.00427246,0.00849609,
7220,-0.00671387,0.00854492,
7222,0.0201416,0.00866089,
7224,0.00427246,0.0086853,
7226,0.00793457,0.00875854,
7228,-0.00976563,0.00882568,
7230,0.00549316,0.00875854,
7232,0.00488281,0.00863037,
7234,-0.0012207,0.00855103,
7236,-0.00549316,0.00856323,
7238,0.000610352,0.00854492,
7240,0.00366211,0.00853271,
7242,-0.0201416,0.00872192,
7244,-0.000610352,0.00866089,
7246,0,0.00860596,
7248,0.00244141,0.00847168,
7250,-0.00183105,0.00830688,
7252,0.000610352,0.00823364,
7254,-0.0140381,0.00828247,
7256,0.00854492,0.00834961,
7258,-0.00610352,0.00820313,
7260,0.0134277,0.00803223,
7262,0.0262451,0.00829468,
7264,-0.0115967,0.00822144,
7266,-0.00427246,0.00806885,
7268,0.00549316,0.00809937,
7270,-0.00610352,0.00814819,
7272,0.0012207,0.00787964,
7274,-0.00671387,0.00773926,
7276,-0.00427246,0.00771484,
7278,-0.0109863,0.00773315,
7280,-0.00183105,0.00765381,
7282,-0.00915527,0.00767822,
7284,0.0170898,0.00774536,
7286,-0.00610352,0.00773315,
7288,0.0012207,0.00762939,
7290,0.0189209,0.00777588,
7292,-0.0164795,0.00784912,
7294,-0.00488281,0.00778198,
7296,0.0250244,0.00778198,
7298,-0.0115967,0.00767822,
7300,-0.010376,0.00772095,
7302,-0.00244141,0.00764771,
7304,0.00854492,0.00767822,
7306,-0.0238037,0.00778809,
7308,-0.00244141,0.00776367,
7310,-0.00854492,0.00773315,
7312,0,0.00761108,
7314,0.00610352,0.0076416,
7316,-0.0134277,0.00775757,
7318,-0.00732422,0.00777588,
7320,0.00976563,0.00783691,
7322,-0.0152588,0.0079834,
7324,0.00976563,0.00802612,
7326,-0.00732422,0.00795288,
7328,0.000610352,0.00778198,
7330,0.00305176,0.00776978,
7332,-0.00976563,0.0078064,
7334,0,0.00778198,
7336,0.00366211,0.00775757,
7338,0.0152588,0.00782471,
7340,-0.0158691,0.00797729,
7342,-0.00305176,0.00795898,
7344,0.0152588,0.00809937,
7346,-0.00427246,0.00813599,
7348,-0.00366211,0.00794678,
7350,0,0.00791016,
7352,-0.0012207,0.00784912,
7354,-0.00183105,0.00778809,
7356,-0.0170898,0.00785522,
7358,0.0152588,0.00795898,
7360,-0.00488281,0.00792236,
7362,-0.0134277,0.00791016,
7364,-0.00366211,0.00792847,
7366,0.010376,0.0079895,
7368,-0.000610352,0.00788574,
7370,0.00671387,0.00780029,
7372,-0.00488281,0.00776367,
7374,-0.0134277,0.00774536,
7376,0.00305176,0.00775146,
7378,0.000610352,0.00771484,
7380,0.00366211,0.00765991,
7382,-0.00732422,0.00769043,
7384,-0.00793457,0.00764771,
7386,-0.00671387,0.00766602,
7388,0.010376,0.00762939,
7390,-0.00183105,0.00751343,
7392,-0.000610352,0.00744019,
7394,-0.00549316,0.00742798,
7396,-0.00427246,0.0074646,
7398,0.00183105,0.00744019,
7400,-0.00305176,0.00736084,
7402,0.00854492,0.00739136,
7404,0.00244141,0.00738525,
7406,0,0.00726929,
7408,0.000610352,0.00721436,
7410,-0.00732422,0.00715942,
7412,0.0012207,0.0071228,
7414,0.000610352,0.00706177,
7416,-0.00854492,0.00710449,
7418,-0.00671387,0.00712891,
7420,-0.00732422,0.00713501,
7422,-0.00671387,0.00700073,
7424,0.00305176,0.00698853,
7426,0.00427246,0.0069519,
7428,-0.00549316,0.00690918,
7430,0.00915527,0.0069458,
7432,0.00183105,0.00691528,
7434,-0.00671387,0.00697021,
7436,0.00488281,0.00696411,
7438,-0.00305176,0.00698853,
7440,0.00732422,0.00702515,
7442,-0.00488281,0.00687256,
7444,0.0183105,0.00704956,
7446,-0.0183105,0.00723267,
7448,0.00244141,0.00723267,
7450,0.0213623,0.00742798,
7452,-0.00305176,0.00745239,
7454,-0.00366211,0.00734863,
7456,-0.00427246,0.00730591,
7458,-0.0012207,0.00725708,
7460,-0.00244141,0.00714722,
7462,-0.00549316,0.0069397,
7464,0.0177002,0.00700073,
7466,-0.0213623,0.00717163,
7468,-0.0109863,0.00722656,
7470,0.0164795,0.00733032,
7472,-0.010376,0.00742187,
7474,0.00183105,0.00737305,
7476,0.00366211,0.00736694,
7478,-0.00732422,0.00733032,
7480,0.00671387,0.00737915,
7482,-0.00488281,0.00733643,
7484,-0.00305176,0.00719604,
7486,-0.00427246,0.00717773,
7488,0.0177002,0.00734253,
7490,-0.0177002,0.00733032,
7492,0.000610352,0.00717163,
7494,0.00549316,0.00717773,
7496,-0.0140381,0.00706787,
7498,0.00427246,0.00699463,
7500,0.012207,0.00701294,
7502,-0.0012207,0.00700073,
7504,-0.0213623,0.00712891,
7506,-0.00610352,0.0069519,
7508,0.00732422,0.00700073,
7510,-0.00793457,0.00699463,
7512,-0.012207,0.0071167,
7514,-0.00549316,0.0071106,
7516,-0.00427246,0.00701904,
7518,0.0109863,0.00705566,
7520,0.0201416,0.00715942,
7522,0.0274658,0.00728149,
7524,0.0152588,0.00733643,
7526,-0.0292969,0.00755615,
7528,0.00854492,0.0076355,
7530,0.00244141,0.00762939,
7532,-0.00915527,0.00762329,
7534,-0.0128174,0.00775146,
7536,-0.0201416,0.00791626,
7538,-0.03479,0.00811157,
7540,-0.00427246,0.00799561,
7542,-0.0140381,0.00810547,
7544,-0.00427246,0.00799561,
7546,-0.00305176,0.0079834,
7548,-0.0012207,0.00795898,
7550,-0.00610352,0.00802002,
7552,-0.00915527,0.00809937,
7554,-0.00610352,0.00814209,
7556,0.000610352,0.00797729,
7558,0,0.00782471,
7560,-0.00244141,0.00780029,
7562,0.00183105,0.00768433,
7564,0.0012207,0.00765991,
7566,0.00183105,0.00757446,
7568,-0.000610352,0.00757446,
7570,0.00976563,0.00760498,
7572,-0.00793457,0.0076355,
7574,0.00671387,0.00756836,
7576,-0.0128174,0.00766602,
7578,0,0.00765991,
7580,-0.00793457,0.00770264,
7582,0.0140381,0.00776978,
7584,-0.0128174,0.0078186,
7586,-0.00854492,0.00783691,
7588,0.00610352,0.00779419,
7590,-0.00244141,0.00780029,
7592,0.000610352,0.00780029,
7594,-0.00671387,0.0078125,
7596,0.00366211,0.0078064,
7598,0.00305176,0.0078186,
7600,0.00244141,0.0078125,
7602,0.00244141,0.00775146,
7604,0.00549316,0.00778198,
7606,-0.00610352,0.00784302,
7608,-0.00427246,0.00787964,
7610,0.00915527,0.00789795,
7612,0.022583,0.00811157,
7614,-0.00183105,0.00812378,
7616,-0.0268555,0.00830688,
7618,-0.0012207,0.00825195,
7620,0.00610352,0.00823975,
7622,0.0012207,0.00818481,
7624,-0.00671387,0.00822144,
7626,-0.0170898,0.00834961,
7628,-0.012207,0.00841675,
7630,-0.000610352,0.0083313,
7632,0.000610352,0.00831909,
7634,-0.000610352,0.00825806,
7636,-0.00915527,0.00830078,
7638,0.00427246,0.00831299,
7640,0,0.00823975,
7642,0.00366211,0.00822754,
7644,0.0219727,0.00826416,
7646,-0.0134277,0.00821533,
7648,0.00305176,0.00822144,
7650,0.0134277,0.00814209,
7652,0.00854492,0.00819702,
7654,-0.0238037,0.00839844,
7656,0.000610352,0.00836182,
7658,-0.00488281,0.00839844,
7660,0.0115967,0.00848999,
7662,0.0134277,0.00856934,
7664,-0.00793457,0.00847168,
7666,-0.0152588,0.00841064,
7668,0.0128174,0.00842896,
7670,0.0012207,0.00827637,
7672,-0.00244141,0.00819702,
7674,-0.0012207,0.00819092,
7676,-0.020752,0.00836182,
7678,-0.00671387,0.00835571,
7680,-0.00366211,0.0083252,
7682,-0.00366211,0.00831299,
7684,0.00610352,0.00834351,
7686,0.000610352,0.00830688,
7688,0.00793457,0.00820923,
7690,-0.00183105,0.00805054,
7692,-0.000610352,0.00805054,
7694,0.00183105,0.00801392,
7696,0.00610352,0.00793457,
7698,-0.00610352,0.00795288,
7700,0.00427246,0.00787354,
7702,-0.00244141,0.00788574,
7704,0.00793457,0.00775146,
7706,-0.0177002,0.00786743,
7708,0.00305176,0.00782471,
7710,0.00671387,0.0078125,
7712,0.00488281,0.00773926,
7714,0.00488281,0.00773315,
7716,-0.00854492,0.00777588,
7718,-0.00244141,0.00769043,
7720,0.0158691,0.00764771,
7722,-0.012207,0.00749512,
7724,-0.00488281,0.00739136,
7726,-0.00244141,0.0071228,
7728,-0.00671387,0.00710449,
7730,-0.000610352,0.00708618,
7732,-0.00488281,0.00704346,
7734,-0.0012207,0.00692749,
7736,-0.00488281,0.0067749,
7738,0.00854492,0.00651245,
7740,-0.010376,0.00657349,
7742,0.0183105,0.00661621,
7744,-0.0134277,0.00670776,
7746,-0.012207,0.00679932,
7748,0.00854492,0.00687256,
7750,0.000610352,0.00681763,
7752,-0.0134277,0.00686035,
7754,-0.00244141,0.00682373,
7756,-0.00366211,0.00685425,
7758,0.012207,0.00697632,
7760,-0.00366211,0.00698853,
7762,-0.00549316,0.00702515,
7764,0.0134277,0.00714722,
7766,0.00244141,0.00715332,
7768,-0.00854492,0.00723267,
7770,-0.00305176,0.00716553,
7772,-0.00732422,0.00715942,
7774,-0.0012207,0.00710449,
7776,-0.00671387,0.00704346,
7778,-0.0128174,0.00717163,
7780,-0.00610352,0.00715332,
7782,0.00427246,0.00705566,
7784,0.0134277,0.00706177,
7786,-0.00183105,0.00699463,
7788,-0.00793457,0.00701294,
7790,0.0012207,0.00700073,
7792,0.00183105,0.00701294,
7794,0.0146484,0.00709229,
7796,-0.0012207,0.00706787,
7798,-0.0115967,0.00715332,
7800,0.00488281,0.00717773,
7802,-0.00610352,0.00721436,
7804,-0.0115967,0.00727539,
7806,-0.00549316,0.00726929,
7808,-0.00244141,0.00725098,
7810,-0.00427246,0.00720215,
7812,-0.00732422,0.00704956,
7814,-0.0128174,0.00715942,
7816,-0.00244141,0.00691528,
7818,0.00793457,0.00698242,
7820,-0.00610352,0.00698242,
7822,-0.0012207,0.00698242,
7824,0.00244141,0.0069397,
7826,-0.00366211,0.00680542,
7828,-0.00549316,0.00673828,
7830,-0.00366211,0.0067688,
7832,-0.00305176,0.00679321,
7834,-0.000610352,0.00679321,
7836,-0.0012207,0.00671387,
7838,0.000610352,0.00667725,
7840,-0.00610352,0.00673828,
7842,0.00915527,0.00679321,
7844,-0.0158691,0.00673218,
7846,0.022583,0.00682373,
7848,-0.00732422,0.00686646,
7850,-0.00427246,0.0067749,
7852,-0.00793457,0.0067688,
7854,0.00244141,0.00655518,
7856,-0.00305176,0.00657959,
7858,-0.00244141,0.00655518,
7860,-0.00183105,0.00645752,
7862,-0.000610352,0.00632935,
7864,-0.00244141,0.00627441,
7866,0.0183105,0.00630493,
7868,-0.00671387,0.0062439,
7870,-0.022583,0.00645752,
7872,0.0317383,0.00675049,
7874,-0.00976563,0.00683594,
7876,-0.00610352,0.00668945,
7878,-0.00976563,0.00671997,
7880,-0.0146484,0.00682983,
7882,0.00732422,0.00686646,
7884,0.00427246,0.00684814,
7886,-0.00793457,0.00692139,
7888,-0.00671387,0.00690918,
7890,-0.00976563,0.00698853,
7892,0.0109863,0.00709229,
7894,-0.00488281,0.0071228,
7896,-0.0012207,0.00707397,
7898,-0.0140381,0.00715332,
7900,-0.0109863,0.00722046,
7902,0.000610352,0.00720215,
7904,-0.0238037,0.00736084,
7906,-0.00915527,0.00727539,
7908,0.00610352,0.00730591,
7910,-0.0201416,0.00744019,
7912,-0.0231934,0.00762329,
7914,0.00976563,0.00767212,
7916,0.00488281,0.0076355,
7918,-0.00244141,0.0076355,
7920,-0.0201416,0.00767822,
7922,0.00488281,0.00760498,
7924,-0.012207,0.00767822,
7926,-0.00427246,0.00769653,
7928,0.00183105,0.00764771,
7930,-0.0134277,0.00777588,
7932,-0.00366211,0.00776367,
7934,0,0.00775146,
7936,0.00488281,0.00775146,
7938,-0.00305176,0.00769653,
7940,-0.00183105,0.00761108,
7942,0.00854492,0.00751343,
7944,-0.000610352,0.00738525,
7946,-0.010376,0.00736694,
7948,0.0012207,0.0072937,
7950,0.0012207,0.0072998,
7952,-0.00732422,0.00723877,
7954,-0.00671387,0.00728149,
7956,-0.0195313,0.00744019,
7958,0.0109863,0.00742798,
7960,-0.0109863,0.00750122,
7962,0.00610352,0.00750732,
7964,-0.00671387,0.00744019,
7966,-0.0115967,0.00753174,
7968,-0.000610352,0.00745239,
7970,0.00366211,0.0074585,
7972,-0.00244141,0.00740967,
7974,-0.00183105,0.00741577,
7976,-0.00488281,0.00739746,
7978,-0.00671387,0.00733643,
7980,-0.0012207,0.0072876,
7982,0.00427246,0.0072876,
7984,-0.00610352,0.00721436,
7986,-0.000610352,0.00720215,
7988,0.00183105,0.00714111,
7990,-0.00427246,0.00717163,
7992,-0.00244141,0.00717773,
7994,0.0115967,0.00714722,
7996,-0.00732422,0.00720825,
7998,-0.000610352,0.00709839,
8000,-0.00183105,0.00706787,
8002,0.00549316,0.00706177,
8004,0.0183105,0.00712891,
8006,-0.0109863,0.00718384,
8008,0.010376,0.00726318,
8010,-0.00427246,0.00726318,
8012,0.00305176,0.00722046,
8014,0.0189209,0.00728149,
8016,-0.0219727,0.00747681,
8018,0.000610352,0.00740356,
8020,0.0128174,0.0074707,
8022,-0.0201416,0.00765991,
8024,0.00427246,0.00767822,
8026,0.00732422,0.00771484,
8028,-0.0268555,0.00792847,
8030,-0.0152588,0.00804443,
8032,0.00976563,0.00811157,
8034,-0.00427246,0.00814819,
8036,-0.0158691,0.00829468,
8038,-0.0170898,0.00845947,
8040,-0.0115967,0.0085144,
8042,-0.0012207,0.00843506,
8044,-0.00244141,0.00830078,
8046,-0.00427246,0.00811768,
8048,-0.00488281,0.00809326,
8050,-0.0012207,0.00806274,
8052,0.00366211,0.00802002,
8054,-0.0140381,0.00813599,
8056,-0.010376,0.00820923,
8058,0.00244141,0.00820923,
8060,0.00305176,0.00822144,
8062,-0.00427246,0.00825806,
8064,-0.0134277,0.00836792,
8066,-0.000610352,0.00819092,
8068,-0.00183105,0.00814209,
8070,0,0.00791626,
8072,-0.00488281,0.00764771,
8074,-0.000610352,0.00755615,
8076,-0.00976563,0.00759277,
8078,-0.00732422,0.00756836,
8080,-0.0134277,0.00755615,
8082,0.00488281,0.00753174,
8084,-0.00366211,0.00752563,
8086,-0.00305176,0.00747681,
8088,-0.0109863,0.00751953,
8090,-0.0109863,0.00753174,
8092,0.0012207,0.00743408,
8094,-0.00305176,0.00741577,
8096,-0.00610352,0.0074646,
8098,0.00488281,0.00737305,
8100,-0.000610352,0.00726929,
8102,-0.0183105,0.00744629,
8104,0.00549316,0.00726318,
8106,-0.012207,0.0072937,
8108,-0.00305176,0.00726318,
8110,-0.00549316,0.0071167,
8112,-0.00488281,0.00693359,
8114,-0.012207,0.00695801,
8116,0.00610352,0.00697021,
8118,-0.0183105,0.00712891,
8120,-0.00610352,0.00698853,
8122,0.00610352,0.00700073,
8124,0.00366211,0.00691528,
8126,-0.00427246,0.00691528,
8128,0.00305176,0.00692749,
8130,-0.0146484,0.0069397,
8132,0.000610352,0.00690918,
8134,-0.00915527,0.00700073,
8136,-0.00549316,0.00700684,
8138,-0.0177002,0.00715332,
8140,-0.012207,0.00725708,
8142,0.00366211,0.00720825,
8144,-0.012207,0.00732422,
8146,-0.0280762,0.00750122,
8148,0.00488281,0.00753784,
8150,-0.00366211,0.00756226,
8152,0.0012207,0.00750122,
8154,-0.010376,0.00753784,
8156,-0.00305176,0.00737305,
8158,0.00610352,0.00732422,
8160,0.0115967,0.00733032,
8162,-0.0274658,0.00754395,
8164,0.00244141,0.00750122,
8166,-0.00732422,0.0074585,
8168,0,0.00745239,
8170,-0.00183105,0.00743408,
8172,-0.010376,0.00751343,
8174,-0.010376,0.00759888,
8176,-0.00976563,0.00764771,
8178,-0.00549316,0.0076355,
8180,-0.00427246,0.00766602,
8182,0.00366211,0.00765991,
8184,-0.00610352,0.00765991,
8186,-0.00305176,0.00768433,
8188,-0.00183105,0.00768433,
8190,-0.00366211,0.00767822,
8192,-0.0012207,0.00766602,
8194,-0.00366211,0.00758667,
8196,-0.00488281,0.00756226,
8198,0.00488281,0.00760498,
8200,-0.00854492,0.00767212,
8202,0.00305176,0.00764771,
8204,0.00976563,0.00756226,
8206,-0.0128174,0.00758057,
8208,-0.00305176,0.00750732,
8210,0.00183105,0.00748291,
8212,0.000610352,0.0074585,
8214,-0.00244141,0.0072937,
8216,-0.0128174,0.00720215,
8218,-0.00854492,0.00728149,
8220,0.00427246,0.00719604,
8222,0.00244141,0.00701904,
8224,-0.00793457,0.00705566,
8226,-0.0152588,0.00713501,
8228,0.0012207,0.00687866,
8230,-0.00610352,0.00678711,
8232,0.00976563,0.00678711,
8234,-0.00610352,0.00680542,
8236,-0.0262451,0.00690918,
8238,0.00366211,0.0067749,
8240,0.0012207,0.00667114,
8242,-0.00976563,0.00675659,
8244,-0.00366211,0.0067688,
8246,-0.0109863,0.00683594,
8248,-0.00915527,0.00687866,
8250,-0.00366211,0.00690308,
8252,0,0.00686646,
8254,-0.0140381,0.00686646,
8256,-0.0146484,0.00690918,
8258,0.0128174,0.00701294,
8260,-0.0115967,0.00709839,
8262,-0.00488281,0.00710449,
8264,0.00793457,0.00704956,
8266,0.000610352,0.00704956,
8268,-0.0170898,0.00720215,
8270,0.00183105,0.00722046,
8272,-0.00427246,0.00721436,
8274,-0.00488281,0.00725708,
8276,-0.00915527,0.00725098,
8278,-0.00915527,0.00726929,
8280,-0.0158691,0.0072937,
8282,0.0146484,0.00739136,
8284,0.000610352,0.00736084,
8286,-0.0231934,0.00756226,
8288,0.00732422,0.00752563,
8290,-0.0158691,0.00757446,
8292,0.00488281,0.00761108,
8294,-0.00427246,0.00762329,
8296,-0.012207,0.00768433,
8298,-0.0183105,0.0078186,
8300,0.00244141,0.00783691,
8302,-0.012207,0.00777588,
8304,-0.00610352,0.00778198,
8306,0.00915527,0.00775146,
8308,-0.0109863,0.00783081,
8310,-0.0183105,0.00795898,
8312,0.00732422,0.0079834,
8314,-0.0128174,0.0079895,
8316,-0.00427246,0.00797119,
8318,-0.0109863,0.00789795,
8320,-0.0158691,0.00799561,
8322,0,0.00793457,
8324,-0.0012207,0.00791016,
8326,-0.0158691,0.00802612,
8328,-0.000610352,0.00800171,
8330,0.00366211,0.00789185,
8332,-0.000610352,0.00789185,
8334,-0.010376,0.00790405,
8336,-0.000610352,0.00785522,
8338,-0.00305176,0.00770874,
8340,-0.00732422,0.00765991,
8342,-0.0012207,0.0076355,
8344,-0.0012207,0.00752563,
8346,-0.0109863,0.00735474,
8348,0.010376,0.00740967,
8350,-0.00854492,0.0074585,
8352,-0.00244141,0.0074707,
8354,0.0012207,0.00737915,
8356,-0.010376,0.00745239,
8358,-0.00610352,0.00745239,
8360,-0.00366211,0.00737305,
8362,-0.0109863,0.00720825,
8364,-0.00610352,0.00724487,
8366,-0.000610352,0.00717773,
8368,0.00244141,0.00720215,
8370,-0.0140381,0.00732422,
8372,0.00305176,0.00725098,
8374,0.00549316,0.00720215,
8376,0.0012207,0.0071167,
8378,-0.0189209,0.00725098,
8380,0.00183105,0.00722656,
8382,-0.00305176,0.00722046,
8384,-0.00732422,0.00723267,
8386,-0.0134277,0.00733643,
8388,-0.00183105,0.00733643,
8390,-0.00793457,0.00737915,
8392,-0.00671387,0.00743408,
8394,0.00976563,0.00749512,
8396,-0.00427246,0.00748901,
8398,0.010376,0.00754395,
8400,-0.0146484,0.00760498,
8402,-0.000610352,0.00758057,
8404,0.0115967,0.00759888,
8406,-0.0140381,0.00761108,
8408,-0.00854492,0.00766602,
8410,-0.0170898,0.0078186,
8412,-0.0115967,0.00792847,
8414,-0.00732422,0.00797729,
8416,-0.00732422,0.00792236,
8418,-0.00793457,0.00791626,
8420,-0.00610352,0.00793457,
8422,-0.00732422,0.0079834,
8424,-0.0012207,0.00791626,
8426,-0.0012207,0.00777588,
8428,-0.00305176,0.00779419,
8430,-0.00427246,0.00777588,
8432,-0.00671387,0.00774536,
8434,0.00244141,0.00770874,
8436,-0.010376,0.00755005,
8438,0.00427246,0.00755615,
8440,-0.0012207,0.00755615,
8442,0.000610352,0.0074646,
8444,0.00488281,0.00747681,
8446,-0.00671387,0.00743408,
8448,-0.000610352,0.00734863,
8450,-0.00305176,0.00734253,
8452,0,0.00734253,
8454,-0.010376,0.00730591,
8456,0.00244141,0.00718384,
8458,-0.00671387,0.0071228,
8460,-0.0146484,0.00715332,
