Danna3musculos_A-L01
Gráfico creado el:2026-06-09 14:40:23.900
Registro en:2026-06-09 14:41:39.970
2 mseg/muestras
2 canales
EMG
mV
EMG Integrado
mV-sec
milliSec,CH1,CH40,
,271382 samples,271382 samples,
0,-0.00793457,7.93457E-05,
2,-0.00671387,0.000146484,
4,0.00976563,0.000244141,
6,-0.020752,0.00045166,
8,-0.00183105,0.000469971,
10,0.0177002,0.000646973,
12,0.00366211,0.000683594,
14,-0.00915527,0.000775146,
16,-0.0231934,0.00100708,
18,-0.00488281,0.00105591,
20,-0.00549316,0.00111084,
22,-0.0134277,0.00124512,
24,-0.0140381,0.0013855,
26,-0.0170898,0.0015564,
28,-0.000610352,0.0015625,
30,-0.00915527,0.00165405,
32,0.00305176,0.00168457,
34,-0.0140381,0.00182495,
36,0.00671387,0.00189209,
38,0.00610352,0.00195313,
40,-0.000610352,0.00195923,
42,-0.0195313,0.00215454,
44,-0.00305176,0.00218506,
46,-0.0146484,0.00233154,
48,-0.00305176,0.00236206,
50,-0.00793457,0.00244141,
52,-0.0152588,0.00259399,
54,-0.00915527,0.00268555,
56,-0.012207,0.00280762,
58,-0.0115967,0.00292358,
60,-0.000610352,0.00292969,
62,0.00732422,0.00300293,
64,-0.0109863,0.00311279,
66,-0.0109863,0.00322266,
68,-0.00671387,0.00328979,
70,0.00305176,0.00332031,
72,-0.00610352,0.00338135,
74,0.00427246,0.00342407,
76,-0.00488281,0.0034729,
78,-0.0164795,0.0036377,
80,-0.00244141,0.00366211,
82,-0.00671387,0.00372925,
84,0.00244141,0.00375366,
86,-0.00976563,0.00385132,
88,0.00793457,0.00393066,
90,-0.00915527,0.00402222,
92,-0.00305176,0.00405273,
94,-0.00793457,0.00413208,
96,-0.0012207,0.00414429,
98,0.0274658,0.00441895,
100,-0.0219727,0.00463867,
102,-0.0164795,0.00480347,
104,-0.00671387,0.00487061,
106,-0.00671387,0.00493774,
108,-0.0109863,0.00504761,
110,-0.0134277,0.00518188,
112,0.00427246,0.00522461,
114,-0.0170898,0.00539551,
116,-0.00244141,0.00541992,
118,-0.0158691,0.00557861,
120,-0.0012207,0.00559082,
122,-0.0134277,0.0057251,
124,0.0012207,0.0057373,
126,-0.010376,0.00584106,
128,-0.010376,0.00594482,
130,-0.00793457,0.00602417,
132,-0.0134277,0.00615845,
134,-0.0128174,0.00628662,
136,0.00732422,0.00635986,
138,0.00183105,0.00637817,
140,-0.022583,0.006604,
142,-0.00793457,0.00668335,
144,0.000610352,0.00668945,
146,-0.00793457,0.0067688,
148,0.00183105,0.00678711,
150,-0.00732422,0.00686035,
152,0.00366211,0.00689697,
154,-0.0128174,0.00702515,
156,-0.00854492,0.0071106,
158,0.00610352,0.00717163,
160,-0.0201416,0.00737305,
162,0.00610352,0.00743408,
164,-0.0109863,0.00754395,
166,-0.00244141,0.00756836,
168,-0.00610352,0.00762939,
170,-0.00671387,0.00769653,
172,-0.00854492,0.00778198,
174,0,0.00778198,
176,0.0012207,0.00779419,
178,0.00732422,0.00786743,
180,-0.00610352,0.00792847,
182,-0.00183105,0.00794678,
184,-0.00366211,0.0079834,
186,0.0012207,0.00799561,
188,0.00183105,0.00801392,
190,-0.00915527,0.00810547,
192,-0.00549316,0.0081604,
194,0,0.0081604,
196,-0.0177002,0.0083374,
198,-0.00427246,0.00838013,
200,-0.00305176,0.0083313,
202,-0.0115967,0.00838013,
204,0.00732422,0.00835571,
206,-0.0189209,0.0083374,
208,-0.00976563,0.00841675,
210,-0.00915527,0.0083313,
212,-0.00793457,0.00837402,
214,-0.00732422,0.00835571,
216,-0.012207,0.00824585,
218,-0.00732422,0.00827026,
220,-0.00366211,0.00825195,
222,0.00244141,0.00814209,
224,-0.0219727,0.00822144,
226,0.0128174,0.00817871,
228,0.00427246,0.00821533,
230,-0.00854492,0.00820923,
232,-0.00915527,0.00827026,
234,0.00183105,0.00814819,
236,-0.00915527,0.00817261,
238,0.000610352,0.00811768,
240,-0.0109863,0.00822144,
242,-0.0231934,0.00825806,
244,0.00671387,0.00829468,
246,-0.00976563,0.00824585,
248,-0.00427246,0.00825806,
250,0.00671387,0.00824585,
252,0.00610352,0.0081543,
254,-0.00732422,0.00813599,
256,0,0.00801392,
258,0.0305176,0.00820313,
260,-0.0183105,0.00838013,
262,-0.00976563,0.00840454,
264,-0.00915527,0.00838623,
266,-0.00854492,0.00836182,
268,-0.00610352,0.00835571,
270,-0.0231934,0.00855713,
272,-0.00366211,0.00853271,
274,-0.0177002,0.00866699,
276,-0.00366211,0.00865479,
278,0.0134277,0.00862427,
280,-0.00366211,0.00863647,
282,-0.0195313,0.00876465,
284,-0.00366211,0.00877686,
286,0.000610352,0.0086853,
288,-0.00305176,0.00863647,
290,-0.0115967,0.00866089,
292,-0.0219727,0.0088501,
294,-0.00610352,0.00883179,
296,-0.012207,0.00894165,
298,-0.00488281,0.00871582,
300,0.00366211,0.00853271,
302,-0.00732422,0.00844116,
304,0.0115967,0.00848999,
306,-0.0177002,0.00859985,
308,-0.00427246,0.00853271,
310,-0.00244141,0.00842285,
312,0,0.00838013,
314,-0.00183105,0.00822754,
316,-0.0170898,0.00837402,
318,0.0012207,0.00822754,
320,0.00488281,0.00826416,
322,-0.0146484,0.00827637,
324,0.00244141,0.00828857,
326,0,0.00818481,
328,0.0262451,0.00834351,
330,-0.00488281,0.00831299,
332,-0.00305176,0.00820923,
334,-0.00305176,0.00811157,
336,0.00427246,0.00808105,
338,0.00915527,0.0081543,
340,-0.0238037,0.0081665,
342,0.00183105,0.00810547,
344,0.0012207,0.00811157,
346,-0.00488281,0.00808105,
348,-0.0280762,0.00834351,
350,-0.00183105,0.00828857,
352,-0.00183105,0.00827026,
354,-0.00366211,0.00817871,
356,-0.0146484,0.00823975,
358,0.000610352,0.00818481,
360,-0.0177002,0.0081604,
362,-0.00610352,0.0081604,
364,-0.0012207,0.00806274,
366,0.0158691,0.00819702,
368,-0.0152588,0.00828857,
370,0.00183105,0.00823975,
372,-0.010376,0.00825806,
374,0,0.00825806,
376,-0.00427246,0.00828857,
378,-0.00183105,0.00823364,
380,-0.0115967,0.00828857,
382,-0.012207,0.00839233,
384,0.0109863,0.00846558,
386,0.010376,0.00855713,
388,-0.00671387,0.00860596,
390,-0.000610352,0.00852051,
392,0,0.00846558,
394,-0.00793457,0.00854492,
396,-0.0164795,0.00853271,
398,-0.00732422,0.00856323,
400,-0.0195313,0.00872803,
402,-0.00854492,0.00869751,
404,-0.00305176,0.00865479,
406,-0.0012207,0.00847778,
408,-0.010376,0.00848389,
410,0.0177002,0.00856934,
412,-0.0146484,0.00863647,
414,0.00793457,0.00864258,
416,-0.00549316,0.00857544,
418,-0.0109863,0.00861206,
420,-0.0109863,0.0086853,
422,-0.00549316,0.00871582,
424,0.00183105,0.0085144,
426,-0.00244141,0.00841064,
428,-0.00793457,0.00844727,
430,-0.00244141,0.00838623,
432,-0.000610352,0.00830078,
434,0.00732422,0.00835571,
436,-0.0134277,0.00839844,
438,0.00305176,0.00842285,
440,0.00732422,0.00838623,
442,-0.00793457,0.00823364,
444,-0.0195313,0.00836182,
446,-0.00671387,0.0083313,
448,0.00915527,0.00838013,
450,-0.00671387,0.00838013,
452,0,0.00831909,
454,-0.0146484,0.00839233,
456,-0.0128174,0.00852051,
458,0.000610352,0.00822144,
460,-0.00427246,0.00808105,
462,0.00671387,0.00805054,
464,0.00427246,0.00800171,
466,0.00427246,0.00795898,
468,-0.0170898,0.00806885,
470,-0.0189209,0.00802612,
472,-0.000610352,0.00799561,
474,0.0012207,0.00783081,
476,-0.0115967,0.00791016,
478,-0.00854492,0.00786133,
480,-0.0274658,0.00809937,
482,-0.00549316,0.00795898,
484,0.00976563,0.00802002,
486,-0.00366211,0.00805054,
488,0.00976563,0.00811768,
490,0.00244141,0.00802612,
492,-0.00854492,0.00789185,
494,0.0109863,0.00794067,
496,-0.000610352,0.00782471,
498,-0.0109863,0.00788574,
500,-0.0109863,0.00795898,
502,-0.00305176,0.00791626,
504,0.000610352,0.0078064,
506,-0.0183105,0.0078125,
508,0.00793457,0.00784912,
510,-0.0152588,0.00797729,
512,0.00427246,0.00802002,
514,-0.0140381,0.00814209,
516,-0.0109863,0.00808105,
518,-0.00549316,0.00812378,
520,-0.0115967,0.00819092,
522,-0.00549316,0.00809937,
524,0.00366211,0.00811157,
526,0.00183105,0.00812988,
528,0.00671387,0.00793457,
530,-0.0177002,0.00806274,
532,0.0012207,0.00804443,
534,0.010376,0.00811768,
536,-0.00915527,0.0081665,
538,0.00305176,0.00810547,
540,-0.020752,0.00807495,
542,-0.012207,0.00817871,
544,-0.0115967,0.00828247,
546,-0.0152588,0.00838623,
548,-0.00427246,0.00814819,
550,-0.0128174,0.00825806,
552,0,0.00823975,
554,-0.00549316,0.00825806,
556,-0.00549316,0.0081665,
558,-0.00366211,0.00819702,
560,-0.00305176,0.00805054,
562,0,0.0079895,
564,0.0109863,0.00808716,
566,-0.0140381,0.00806885,
568,0.0012207,0.00792847,
570,-0.0189209,0.00809937,
572,0.0170898,0.0081665,
574,-0.00183105,0.00818481,
576,-0.0201416,0.00834351,
578,0,0.0083252,
580,-0.000610352,0.00821533,
582,-0.0146484,0.00823975,
584,-0.0164795,0.00829468,
586,-0.00366211,0.00822754,
588,-0.00366211,0.00819702,
590,0,0.00819092,
592,0.00610352,0.00825195,
594,-0.0201416,0.00837402,
596,-0.020752,0.00841675,
598,0.00854492,0.00842896,
600,-0.00976563,0.0083313,
602,-0.00732422,0.00831909,
604,-0.0128174,0.00841675,
606,-0.0012207,0.00841675,
608,-0.0146484,0.00845947,
610,-0.00488281,0.0083313,
612,-0.012207,0.00830688,
614,-0.00671387,0.00829468,
616,0.00183105,0.00825806,
618,-0.0134277,0.00828247,
620,-0.0134277,0.00830688,
622,-0.00183105,0.00827026,
624,-0.0115967,0.00836792,
626,0,0.00834351,
628,-0.00183105,0.00828247,
630,-0.00732422,0.0083313,
632,-0.00427246,0.00836792,
634,-0.00427246,0.0083374,
636,-0.00915527,0.00829468,
638,0.00549316,0.00831909,
640,-0.0152588,0.00839844,
642,-0.00976563,0.00841675,
644,0.00793457,0.00830078,
646,-0.0170898,0.00840454,
648,-0.0109863,0.00842285,
650,-0.00183105,0.00837402,
652,-0.00305176,0.00840454,
654,-0.00183105,0.00827637,
656,-0.012207,0.00827026,
658,-0.00976563,0.00836182,
660,0.00244141,0.00834351,
662,0.000610352,0.00828247,
664,0,0.00823975,
666,-0.00915527,0.00828857,
668,-0.00549316,0.00817261,
670,-0.00427246,0.00802612,
672,0.0128174,0.00814819,
674,-0.0262451,0.00839844,
676,0.00976563,0.00838013,
678,0.00854492,0.00838013,
680,-0.0128174,0.00823364,
682,-0.00915527,0.00827026,
684,0.00610352,0.00823364,
686,0.000610352,0.00820313,
688,0.020752,0.00831299,
690,0.00488281,0.0083374,
692,-0.045166,0.00870361,
694,0.0213623,0.00880737,
696,-0.0158691,0.00895996,
698,-0.00671387,0.00891724,
700,-0.0189209,0.00899658,
702,-0.022583,0.00919189,
704,-0.0134277,0.00932007,
706,-0.0146484,0.00928345,
708,-0.00915527,0.00929565,
710,0.00366211,0.00917969,
712,-0.00976563,0.00923462,
714,-0.0115967,0.00921021,
716,-0.00732422,0.00917358,
718,-0.000610352,0.00912476,
720,-0.0115967,0.00912476,
722,-0.0115967,0.00918579,
724,-0.00366211,0.00918579,
726,-0.00732422,0.00924072,
728,0,0.00917358,
730,-0.0128174,0.00912476,
732,0.000610352,0.00911865,
734,-0.00549316,0.00906982,
736,-0.0012207,0.00899048,
738,0.00366211,0.00899658,
740,-0.0140381,0.00892944,
742,-0.00549316,0.0088623,
744,0.00732422,0.00881958,
746,-0.0146484,0.00881348,
748,0.00793457,0.0088501,
750,-0.00610352,0.00878296,
752,0.00549316,0.00883789,
754,-0.00854492,0.00886841,
756,-0.0109863,0.00892334,
758,-0.00915527,0.00897827,
760,0.020752,0.00915527,
762,0.0128174,0.00928345,
764,-0.0128174,0.00930176,
766,0.0177002,0.00933838,
768,0.00366211,0.00936279,
770,-0.0213623,0.00938721,
772,0.00305176,0.00924683,
774,-0.0012207,0.00924072,
776,-0.0146484,0.00918579,
778,-0.012207,0.00930786,
780,-0.0177002,0.00947876,
782,-0.0183105,0.00951538,
784,-0.00305176,0.0093811,
786,-0.00793457,0.00942383,
788,0.000610352,0.00939331,
790,0.00305176,0.00942383,
792,-0.00488281,0.00941162,
794,-0.0170898,0.0093811,
796,-0.00305176,0.0092041,
798,0.0012207,0.00913086,
800,-0.00976563,0.00913086,
802,-0.00366211,0.00909424,
804,-0.012207,0.00908813,
806,-0.0134277,0.00921021,
808,-0.0109863,0.00917358,
810,0.00610352,0.00918579,
812,-0.00793457,0.00914307,
814,0.00183105,0.00909424,
816,-0.012207,0.009198,
818,-0.00976563,0.00916138,
820,-0.00305176,0.00905762,
822,-0.00732422,0.00911255,
824,0.00549316,0.00905151,
826,-0.00671387,0.00911865,
828,-0.00671387,0.00916748,
830,-0.000610352,0.00910034,
832,0.0152588,0.00921021,
834,-0.0189209,0.00935669,
836,-0.00183105,0.00928345,
838,0.00854492,0.00931396,
840,-0.00549316,0.00921631,
842,-0.00854492,0.0092041,
844,-0.00915527,0.00921631,
846,-0.00488281,0.00909424,
848,-0.00427246,0.0090271,
850,0.00915527,0.00910034,
852,-0.0109863,0.00917969,
854,-0.000610352,0.00916748,
856,-0.00915527,0.00913696,
858,0.0134277,0.00917358,
860,0.00549316,0.0092041,
862,-0.0238037,0.00943604,
864,-0.00671387,0.00950317,
866,-0.00427246,0.00945435,
868,0.012207,0.00952148,
870,-0.0109863,0.00958862,
872,-0.00915527,0.009552,
874,0.00915527,0.0093811,
876,-0.00366211,0.00932007,
878,0.0134277,0.0093689,
880,-0.00793457,0.00932007,
882,-0.0201416,0.00942993,
884,-0.000610352,0.009375,
886,-0.012207,0.00949097,
888,0.00732422,0.00935669,
890,-0.00427246,0.00935059,
892,0.00305176,0.00892944,
894,0.00366211,0.00875244,
896,-0.0201416,0.00879517,
898,0.00610352,0.00878906,
900,-0.00488281,0.00864868,
902,-0.00854492,0.0085083,
904,-0.0189209,0.00856323,
906,-0.0195313,0.00861206,
908,-0.0256348,0.00877686,
910,-0.00976563,0.00883789,
912,-0.00549316,0.00879517,
914,-0.000610352,0.0086853,
916,-0.0158691,0.00877075,
918,-0.010376,0.00886841,
920,-0.0012207,0.00876465,
922,-0.00183105,0.00866699,
924,0.000610352,0.00863647,
926,-0.0152588,0.00871582,
928,0.00671387,0.00878296,
930,-0.00915527,0.00874634,
932,-0.00305176,0.00877075,
934,-0.00366211,0.00875244,
936,0.00732422,0.00881348,
938,0.00183105,0.00879517,
940,-0.00305176,0.0086853,
942,-0.00183105,0.00864868,
944,0.000610352,0.00858154,
946,-0.00793457,0.0085144,
948,-0.0152588,0.00858765,
950,0.0128174,0.00865479,
952,0.00549316,0.00865479,
954,-0.0311279,0.00888062,
956,-0.00671387,0.00883789,
958,0.0195313,0.00894165,
960,0.00488281,0.00878296,
962,-0.00366211,0.00869141,
964,-0.020752,0.00877075,
966,0.012207,0.00871582,
968,-0.0012207,0.00869141,
970,-0.0177002,0.00865479,
972,-0.00427246,0.00866699,
974,-0.0115967,0.00877075,
976,-0.0128174,0.00875244,
978,-0.0012207,0.00864258,
980,-0.0140381,0.00860596,
982,0.0115967,0.00853882,
984,0.00610352,0.00856934,
986,-0.022583,0.00871582,
988,-0.0115967,0.00882568,
990,0.00183105,0.00881348,
992,-0.00976563,0.0088623,
994,-0.012207,0.00881348,
996,-0.0134277,0.00891724,
998,-0.00854492,0.00899048,
1000,-0.012207,0.00901489,
1002,0.000610352,0.00898438,
1004,-0.00366211,0.00889893,
1006,-0.00427246,0.00880737,
1008,-0.00915527,0.00878906,
1010,0.00244141,0.00875244,
1012,0.000610352,0.0086792,
1014,0,0.00866089,
1016,-0.00915527,0.00863037,
1018,-0.00488281,0.00858154,
1020,-0.00305176,0.00858154,
1022,0,0.0085083,
1024,-0.012207,0.00857544,
1026,-0.00793457,0.00858765,
1028,0.00671387,0.00858765,
1030,0.00427246,0.00862427,
1032,-0.012207,0.00859375,
1034,-0.0152588,0.00855713,
1036,0.00610352,0.00859985,
1038,0.0177002,0.00869141,
1040,-0.00976563,0.00873413,
1042,-0.0164795,0.00881348,
1044,-0.0170898,0.00889282,
1046,-0.0012207,0.0088562,
1048,-0.00854492,0.00889893,
1050,-0.0012207,0.00881958,
1052,-0.0201416,0.00891113,
1054,-0.012207,0.0090271,
1056,-0.010376,0.00903931,
1058,0.00183105,0.00892334,
1060,0.00793457,0.00894775,
1062,-0.00488281,0.00875854,
1064,-0.00732422,0.00876465,
1066,-0.00610352,0.00878296,
1068,0.00610352,0.00872192,
1070,0,0.00861206,
1072,-0.010376,0.00862427,
1074,-0.00732422,0.00860596,
1076,-0.00488281,0.00861816,
1078,-0.000610352,0.00848999,
1080,0.0189209,0.00859985,
1082,-0.000610352,0.00840454,
1084,-0.0311279,0.00870972,
1086,0.00488281,0.00863647,
1088,0.0189209,0.00875244,
1090,0.00915527,0.00880127,
1092,-0.0274658,0.00904541,
1094,-0.0231934,0.00924072,
1096,-0.010376,0.00914307,
1098,0.00976563,0.00917969,
1100,0.00244141,0.00915527,
1102,-0.0201416,0.00927124,
1104,-0.0244141,0.00932617,
1106,-0.00305176,0.00916138,
1108,-0.000610352,0.00891113,
1110,-0.0164795,0.00897827,
1112,-0.00488281,0.00897217,
1114,-0.00915527,0.00905762,
1116,-0.0152588,0.00905151,
1118,-0.00915527,0.00903931,
1120,-0.012207,0.00914917,
1122,0.00427246,0.00917358,
1124,-0.00732422,0.00924072,
1126,-0.00610352,0.00914917,
1128,-0.0012207,0.00909424,
1130,-0.00549316,0.00905762,
1132,-0.00427246,0.00906982,
1134,0.00183105,0.00905151,
1136,-0.00671387,0.00904541,
1138,0.00427246,0.00906982,
1140,-0.00610352,0.00910034,
1142,0.00549316,0.00913696,
1144,-0.00732422,0.0092041,
1146,-0.00610352,0.00918579,
1148,0.000610352,0.00903931,
1150,0.000610352,0.00891724,
1152,-0.00183105,0.00888062,
1154,-0.00366211,0.00860596,
1156,-0.010376,0.00864258,
1158,-0.00366211,0.00848389,
1160,0,0.00843506,
1162,0.0109863,0.0085083,
1164,0.00610352,0.00836182,
1166,-0.0109863,0.00834961,
1168,0.00305176,0.00836792,
1170,-0.0238037,0.00842896,
1172,0.00915527,0.00847778,
1174,0.00427246,0.00840454,
1176,-0.0128174,0.00840454,
1178,-0.0256348,0.00864868,
1180,-0.0238037,0.00874634,
1182,0.0158691,0.00878906,
1184,-0.0268555,0.00899658,
1186,-0.00427246,0.00881348,
1188,0.00244141,0.00872192,
1190,-0.00732422,0.00877686,
1192,0.00488281,0.00872803,
1194,-0.0115967,0.00872192,
1196,-0.00549316,0.00864258,
1198,-0.00915527,0.00864868,
1200,0.0115967,0.00864258,
1202,-0.0128174,0.00876465,
1204,-0.0231934,0.00895996,
1206,0,0.00891724,
1208,-0.010376,0.00892944,
1210,0.00732422,0.00897827,
1212,-0.0244141,0.00921631,
1214,-0.0012207,0.00922852,
1216,0.00488281,0.00918579,
1218,-0.00793457,0.00921631,
1220,-0.010376,0.00928955,
1222,-0.00427246,0.00933228,
1224,-0.00976563,0.00930786,
1226,-0.00915527,0.00932007,
1228,0.00427246,0.00929565,
1230,-0.0213623,0.00946655,
1232,0.00854492,0.00942993,
1234,0.00976563,0.009375,
1236,-0.00549316,0.0093689,
1238,0.0213623,0.00940552,
1240,-0.00976563,0.00940552,
1242,-0.0128174,0.0093689,
1244,-0.00610352,0.00925903,
1246,0.000610352,0.00925293,
1248,-0.00366211,0.0092041,
1250,-0.0195313,0.00938721,
1252,-0.0170898,0.00935669,
1254,-0.00610352,0.00929565,
1256,-0.0146484,0.00933838,
1258,-0.0152588,0.00947266,
1260,0.0183105,0.00957642,
1262,0.00915527,0.00961914,
1264,-0.0396729,0.00994263,
1266,0.0189209,0.0100708,
1268,0.00671387,0.0100769,
1270,-0.0158691,0.0102356,
1272,-0.00915527,0.0102234,
1274,0,0.0101501,
1276,0.010376,0.0102051,
1278,-0.03479,0.0105469,
1280,-0.0213623,0.0105713,
1282,0.00976563,0.0106628,
1284,-0.0152588,0.0105042,
1286,-0.0238037,0.0106934,
1288,0.00488281,0.010553,
1290,-0.0158691,0.0106201,
1292,-0.0012207,0.0103577,
1294,-0.0140381,0.0102661,
1296,0.00488281,0.0102112,
1298,-0.0201416,0.0103149,
1300,-0.00915527,0.0103821,
1302,-0.00427246,0.0102234,
1304,-0.0177002,0.0101563,
1306,-0.0213623,0.0103394,
1308,-0.000610352,0.0103394,
1310,-0.00244141,0.010199,
1312,-0.010376,0.0102539,
1314,0.00427246,0.0102051,
1316,-0.00549316,0.0101074,
1318,-0.00732422,0.0100891,
1320,-0.00366211,0.0100037,
1322,0.0012207,0.00997314,
1324,0.00427246,0.00994263,
1326,-0.0128174,0.0100098,
1328,-0.00366211,0.0100342,
1330,-0.0158691,0.0101379,
1332,0.00427246,0.0101379,
1334,-0.00305176,0.0101501,
1336,-0.00854492,0.0101685,
1338,-0.00610352,0.0101868,
1340,-0.0177002,0.0103027,
1342,-0.00366211,0.0102844,
1344,-0.00427246,0.0102539,
1346,-0.00610352,0.0102539,
1348,0.000610352,0.0102539,
1350,-0.00183105,0.0102661,
1352,0.022583,0.0104736,
1354,-0.0256348,0.0106934,
1356,-0.00976563,0.0106873,
1358,0.00366211,0.0106873,
1360,0.000610352,0.0106934,
1362,-0.00244141,0.0106079,
1364,-0.00366211,0.0105835,
1366,-0.00976563,0.0105713,
1368,-0.020752,0.0107483,
1370,-0.000610352,0.0105164,
1372,0.0109863,0.0105347,
1374,-0.00915527,0.0105835,
1376,0.00854492,0.0105408,
1378,-0.00732422,0.0103577,
1380,-0.0140381,0.01026,
1382,-0.0183105,0.0102844,
1384,-0.00976563,0.0101135,
1386,-0.010376,0.0101746,
1388,-0.00549316,0.0102051,
1390,-0.0250244,0.0103821,
1392,-0.0164795,0.010498,
1394,-0.00427246,0.0104248,
1396,-0.010376,0.0104736,
1398,-0.0152588,0.0105347,
1400,-0.00549316,0.0104736,
1402,0.00549316,0.0104004,
1404,-0.00427246,0.0102112,
1406,-0.012207,0.0103333,
1408,-0.00366211,0.0102661,
1410,-0.00244141,0.0102173,
1412,-0.00244141,0.00999756,
1414,-0.00976563,0.010083,
1416,-0.00549316,0.0100891,
1418,-0.00488281,0.0100586,
1420,-0.00732422,0.0100281,
1422,0,0.00998535,
1424,-0.00976563,0.00998535,
1426,-0.0134277,0.0100281,
1428,0.00427246,0.0100281,
1430,-0.0183105,0.00999756,
1432,0.00488281,0.00996094,
1434,-0.00488281,0.00991211,
1436,-0.00305176,0.0098877,
1438,-0.00183105,0.00969238,
1440,-0.00610352,0.00965576,
1442,0.000610352,0.00953369,
1444,0.0012207,0.00948486,
1446,0.0115967,0.00959473,
1448,-0.00183105,0.00957642,
1450,0.00488281,0.00942993,
1452,0.0012207,0.00927124,
1454,0.00488281,0.00925903,
1456,-0.0140381,0.00925293,
1458,0.000610352,0.00910645,
1460,-0.00854492,0.00900879,
1462,-0.0115967,0.0090332,
1464,-0.0238037,0.00887451,
1466,-0.00427246,0.00872803,
1468,-0.00244141,0.0086853,
1470,-0.0238037,0.00876465,
1472,-0.00976563,0.00877075,
1474,0.00671387,0.00883789,
1476,-0.0140381,0.00887451,
1478,-0.00183105,0.00854492,
1480,-0.0170898,0.0085022,
1482,-0.00671387,0.00847168,
1484,0.0012207,0.0083313,
1486,-0.0128174,0.00822144,
1488,0.000610352,0.00817871,
1490,-0.010376,0.00812378,
1492,-0.000610352,0.00811768,
1494,0.0012207,0.0079895,
1496,-0.0134277,0.00807495,
1498,-0.00549316,0.00792847,
1500,0.00305176,0.00786743,
1502,-0.0140381,0.00796509,
1504,-0.00183105,0.0078064,
1506,-0.0195313,0.00778809,
1508,-0.000610352,0.00778809,
1510,-0.00549316,0.0078186,
1512,0.00671387,0.00778198,
1514,-0.00183105,0.00775757,
1516,-0.0128174,0.00783081,
1518,-0.00427246,0.00780029,
1520,-0.00305176,0.00779419,
1522,-0.00183105,0.00780029,
1524,0.00183105,0.00777588,
1526,-0.0134277,0.00778198,
1528,-0.0164795,0.00791016,
1530,-0.0115967,0.00786743,
1532,-0.0012207,0.00783691,
1534,-0.00915527,0.00789795,
1536,-0.0146484,0.00795898,
1538,-0.00427246,0.00794067,
1540,-0.0189209,0.00795288,
1542,-0.00183105,0.00793457,
1544,0.00305176,0.00792236,
1546,0.0177002,0.00803833,
1548,-0.00610352,0.00809326,
1550,0.000610352,0.00808105,
1552,0,0.00785522,
1554,0.0128174,0.00772705,
1556,-0.00854492,0.00771484,
1558,-0.0164795,0.00784302,
1560,-0.00793457,0.00791626,
1562,-0.010376,0.00799561,
1564,-0.012207,0.00808105,
1566,-0.00244141,0.00800781,
1568,0.00488281,0.00784912,
1570,-0.0378418,0.00822144,
1572,-0.00305176,0.00814209,
1574,0.00854492,0.00813599,
1576,-0.00671387,0.00811768,
1578,-0.0231934,0.00827637,
1580,-0.0146484,0.00828247,
1582,0.00305176,0.00812988,
1584,-0.0262451,0.00829468,
1586,-0.00854492,0.00827637,
1588,-0.00244141,0.00824585,
1590,-0.0140381,0.00813599,
1592,-0.0134277,0.00810547,
1594,-0.00854492,0.00814819,
1596,-0.012207,0.0081665,
1598,-0.010376,0.00811768,
1600,-0.00610352,0.00812378,
1602,-0.0158691,0.00822754,
1604,-0.00305176,0.00821533,
1606,-0.00244141,0.00811768,
1608,-0.00671387,0.00814819,
1610,-0.000610352,0.00812988,
1612,-0.00793457,0.00818481,
1614,-0.00366211,0.00812378,
1616,-0.00732422,0.00814209,
1618,-0.00793457,0.00817261,
1620,-0.00976563,0.00819702,
1622,0.00305176,0.00822754,
1624,-0.010376,0.00823364,
1626,-0.00732422,0.00817261,
1628,-0.0109863,0.00823975,
1630,-0.00793457,0.00813599,
1632,0.00244141,0.00811157,
1634,0.00488281,0.00811157,
1636,-0.00732422,0.0081543,
1638,0.00305176,0.0081665,
1640,-0.0134277,0.00823975,
1642,0,0.00823364,
1644,0.0177002,0.00839844,
1646,-0.000610352,0.00828857,
1648,-0.0128174,0.00839844,
1650,0.00488281,0.00839844,
1652,-0.0109863,0.00849609,
1654,0.00854492,0.00853271,
1656,-0.00305176,0.00842285,
1658,-0.0213623,0.00863037,
1660,-0.00244141,0.00856934,
1662,-0.0012207,0.00846558,
1664,-0.00732422,0.00830078,
1666,-0.0164795,0.00842285,
1668,-0.0164795,0.00856323,
1670,-0.00915527,0.00841675,
1672,0.00732422,0.00839233,
1674,-0.020752,0.00853271,
1676,-0.0146484,0.00853882,
1678,0,0.00852051,
1680,-0.00915527,0.00844116,
1682,0.00488281,0.00842285,
1684,-0.00732422,0.00848389,
1686,-0.00915527,0.00844727,
1688,-0.00610352,0.0085022,
1690,-0.010376,0.0085022,
1692,-0.00305176,0.00852661,
1694,-0.00793457,0.00859375,
1696,-0.0128174,0.00858765,
1698,-0.00915527,0.00862427,
1700,-0.00671387,0.00866089,
1702,-0.0109863,0.00863037,
1704,-0.0134277,0.00874634,
1706,-0.00671387,0.00861816,
1708,-0.00549316,0.00866699,
1710,-0.00183105,0.00863037,
1712,-0.0012207,0.00857544,
1714,-0.0152588,0.00870972,
1716,-0.00183105,0.00859985,
1718,-0.00732422,0.00863037,
1720,-0.00244141,0.00862427,
1722,0.00793457,0.0086853,
1724,-0.0109863,0.00877686,
1726,0.00183105,0.00866089,
1728,-0.00915527,0.00858765,
1730,0,0.00847168,
1732,0.00915527,0.00855103,
1734,-0.00305176,0.00848999,
1736,-0.00793457,0.00842285,
1738,0.00671387,0.00844727,
1740,0.00610352,0.00831909,
1742,0.00610352,0.00836182,
1744,-0.0250244,0.00858154,
1746,0.0219727,0.00862427,
1748,0.0213623,0.00877686,
1750,-0.00305176,0.00880127,
1752,-0.00244141,0.00882568,
1754,-0.0140381,0.00883789,
1756,0.00244141,0.00877686,
1758,-0.0152588,0.00876465,
1760,0.0170898,0.0088562,
1762,-0.0415039,0.00916748,
1764,-0.0256348,0.00930176,
1766,-0.0128174,0.00940552,
1768,-0.0134277,0.00949097,
1770,-0.0238037,0.00935059,
1772,-0.00915527,0.00941162,
1774,-0.0183105,0.00950928,
1776,-0.00793457,0.00952148,
1778,-0.00183105,0.00930786,
1780,-0.0183105,0.00934448,
1782,0.00183105,0.00933228,
1784,-0.00610352,0.00913086,
1786,-0.00244141,0.00906982,
1788,0.0012207,0.00905762,
1790,-0.0170898,0.00908813,
1792,-0.00305176,0.00898438,
1794,-0.00610352,0.00895996,
1796,0.0012207,0.0088501,
1798,-0.00244141,0.00877075,
1800,-0.0134277,0.00884399,
1802,-0.000610352,0.00869141,
1804,-0.00915527,0.00875244,
1806,0.00427246,0.00877075,
1808,-0.00427246,0.00874634,
1810,-0.00915527,0.00883179,
1812,0.0128174,0.00888062,
1814,-0.00976563,0.00894165,
1816,-0.00183105,0.00888672,
1818,-0.00610352,0.00886841,
1820,-0.00549316,0.00882568,
1822,0.0158691,0.00895386,
1824,-0.0152588,0.00900269,
1826,0.00488281,0.00897827,
1828,-0.00732422,0.00894165,
1830,-0.00305176,0.00889282,
1832,0.00488281,0.00891724,
1834,0.0140381,0.00900879,
1836,0.00366211,0.00897217,
1838,-0.0134277,0.00907593,
1840,-0.00671387,0.00900879,
1842,0.0158691,0.00916748,
1844,-0.0115967,0.00910645,
1846,0.00549316,0.00915527,
1848,0.0140381,0.00916748,
1850,-0.00488281,0.00916748,
1852,0.0134277,0.00919189,
1854,-0.0134277,0.00924072,
1856,-0.0262451,0.00947266,
1858,0.010376,0.00936279,
1860,0.00610352,0.00939941,
1862,-0.012207,0.00950928,
1864,-0.0354004,0.00979004,
1866,-0.0244141,0.00986938,
1868,-0.0177002,0.00988159,
1870,-0.00915527,0.00988159,
1872,-0.0109863,0.00991821,
1874,-0.0146484,0.00985718,
1876,-0.00976563,0.00980835,
1878,-0.00366211,0.00984497,
1880,-0.000610352,0.00975952,
1882,0.00244141,0.00973511,
1884,-0.00732422,0.00973511,
1886,-0.00427246,0.00968628,
1888,0.000610352,0.00963135,
1890,-0.00366211,0.00956421,
1892,0.00549316,0.00958862,
1894,-0.00427246,0.009552,
1896,-0.000610352,0.00942993,
1898,0.00366211,0.009375,
1900,-0.00183105,0.00932617,
1902,-0.00732422,0.00928955,
1904,-0.00549316,0.00921021,
1906,0.00244141,0.00916748,
1908,-0.00183105,0.00913086,
1910,-0.010376,0.00921631,
1912,0.00366211,0.00924072,
1914,-0.00366211,0.00912476,
1916,-0.012207,0.00922852,
1918,0.00305176,0.00918579,
1920,-0.00305176,0.00919189,
1922,0.0140381,0.00925293,
1924,-0.000610352,0.00914917,
1926,-0.0195313,0.00932617,
1928,0.00915527,0.00932617,
1930,-0.012207,0.00944824,
1932,-0.0128174,0.00948486,
1934,0.00976563,0.009552,
1936,-0.0134277,0.00960693,
1938,0.00854492,0.00962524,
1940,-0.010376,0.00966797,
1942,0.010376,0.00971069,
1944,0.0109863,0.00957031,
1946,-0.00976563,0.00944824,
1948,0.0164795,0.00939941,
1950,-0.00610352,0.00942993,
1952,-0.020752,0.00961304,
1954,-0.00915527,0.00956421,
1956,-0.012207,0.00966187,
1958,-0.0134277,0.00964355,
1960,-0.00610352,0.00953369,
1962,-0.0164795,0.00928345,
1964,-0.0140381,0.00916748,
1966,-0.00915527,0.00913086,
1968,-0.000610352,0.00900269,
1970,-0.00854492,0.0088501,
1972,-0.010376,0.0088623,
1974,-0.00854492,0.00876465,
1976,-0.010376,0.00878906,
1978,-0.000610352,0.00877686,
1980,-0.0140381,0.00873413,
1982,-0.00183105,0.00873413,
1984,0.0012207,0.0086853,
1986,-0.00427246,0.00870361,
1988,0.0164795,0.0088562,
1990,-0.0238037,0.00892334,
1992,0.0115967,0.00900879,
1994,-0.0152588,0.00910034,
1996,-0.0012207,0.00910034,
1998,0.00915527,0.00916748,
2000,0.00732422,0.00910645,
2002,-0.0170898,0.00927124,
2004,-0.0164795,0.00934448,
2006,0.0231934,0.00953369,
2008,-0.00732422,0.00956421,
2010,-0.00915527,0.00956421,
2012,-0.00976563,0.00953369,
2014,-0.00549316,0.00949097,
2016,0.00488281,0.00952148,
2018,-0.012207,0.00958252,
2020,-0.0164795,0.00969238,
2022,0.00793457,0.00961304,
2024,0.00427246,0.00950317,
2026,-0.00915527,0.0095459,
2028,0.0115967,0.00958862,
2030,-0.0219727,0.00977783,
2032,-0.0012207,0.00974121,
2034,0.00549316,0.00965576,
2036,-0.00366211,0.00965576,
2038,-0.00427246,0.00956421,
2040,-0.0146484,0.00964355,
2042,0.00915527,0.00957642,
2044,-0.00305176,0.00949097,
2046,-0.00366211,0.00947266,
2048,0.00915527,0.00942383,
2050,-0.0012207,0.00938721,
2052,-0.00732422,0.00932617,
2054,0.0012207,0.0092041,
2056,-0.0012207,0.00895386,
2058,0.0012207,0.0088623,
2060,-0.00427246,0.00884399,
2062,-0.00610352,0.00878296,
2064,-0.00610352,0.00848999,
2066,0.00854492,0.0083313,
2068,-0.0134277,0.00828857,
2070,0.000610352,0.00820313,
2072,0.00488281,0.00814209,
2074,-0.00732422,0.00806885,
2076,-0.00610352,0.00803223,
2078,0.000610352,0.00800171,
2080,-0.0128174,0.00812378,
2082,0.0115967,0.00821533,
2084,0.0109863,0.00825195,
2086,-0.0115967,0.0083252,
2088,0.0128174,0.00844727,
2090,0.00732422,0.00848389,
2092,-0.000610352,0.00843506,
2094,0.00854492,0.00847778,
2096,0.00549316,0.00852661,
2098,-0.00671387,0.00855713,
2100,-0.00427246,0.00858154,
2102,-0.0286865,0.00879517,
2104,-0.00915527,0.00883179,
2106,-0.00427246,0.0088501,
2108,-0.0109863,0.00894165,
2110,-0.0134277,0.00897217,
2112,-0.0164795,0.00910034,
2114,-0.010376,0.00916748,
2116,-0.00549316,0.00910034,
2118,0.010376,0.00917358,
2120,-0.0115967,0.00925903,
2122,0.0128174,0.00924683,
2124,-0.010376,0.00934448,
2126,0.0012207,0.00916138,
2128,0.00488281,0.00911865,
2130,-0.00183105,0.00901489,
2132,-0.00549316,0.00894165,
2134,0.00488281,0.00889282,
2136,0,0.00875854,
2138,0.00610352,0.00873413,
2140,0.00549316,0.0086853,
2142,-0.0170898,0.00875244,
2144,-0.00488281,0.00869141,
2146,0.0012207,0.00860596,
2148,-0.012207,0.00856323,
2150,-0.00427246,0.00854492,
2152,-0.0164795,0.0085022,
2154,-0.00671387,0.00847778,
2156,-0.00366211,0.00839233,
2158,0.00915527,0.00834961,
2160,0.0012207,0.00830078,
2162,0.0128174,0.00826416,
2164,-0.0219727,0.00834351,
2166,0.00610352,0.00831299,
2168,0.0231934,0.00853882,
2170,-0.0177002,0.00863037,
2172,-0.0238037,0.00876465,
2174,-0.00549316,0.00873413,
2176,0.010376,0.00873413,
2178,-0.0262451,0.00899048,
2180,-0.020752,0.00905762,
2182,0.00305176,0.00906982,
2184,-0.0183105,0.00924072,
2186,0.00671387,0.00926514,
2188,-0.00366211,0.00913696,
2190,-0.0115967,0.00901489,
2192,-0.00915527,0.00899048,
2194,0.00305176,0.00886841,
2196,-0.00732422,0.00892944,
2198,0.010376,0.00894165,
2200,-0.00793457,0.00894775,
2202,-0.00854492,0.0088623,
2204,-0.0115967,0.00881348,
2206,0.0115967,0.00869751,
2208,-0.000610352,0.00863037,
2210,-0.00793457,0.00861816,
2212,-0.00305176,0.00855103,
2214,0.00610352,0.00855713,
2216,-0.0158691,0.00866699,
2218,-0.000610352,0.00855103,
2220,0,0.00838623,
2222,-0.00366211,0.00834351,
2224,-0.0183105,0.00848389,
2226,-0.00915527,0.00848389,
2228,-0.00610352,0.00842896,
2230,-0.0115967,0.0083252,
2232,0.022583,0.00853882,
2234,-0.0115967,0.00859985,
2236,-0.00244141,0.00858765,
2238,0.0164795,0.00870972,
2240,0.0354004,0.00891724,
2242,-0.0128174,0.00895386,
2244,-0.0140381,0.00906372,
2246,0.00305176,0.00905762,
2248,-0.0128174,0.00909424,
2250,-0.0201416,0.00928345,
2252,-0.0152588,0.00936279,
2254,-0.0256348,0.00960693,
2256,-0.00976563,0.00969238,
2258,-0.0152588,0.00983276,
2260,-0.00732422,0.00986328,
2262,0.00244141,0.00982666,
2264,-0.0109863,0.00987549,
2266,0.00488281,0.00983887,
2268,-0.0115967,0.00982056,
2270,-0.0146484,0.00996094,
2272,0.00793457,0.00999146,
2274,-0.0152588,0.0100708,
2276,-0.0213623,0.0102234,
2278,0.00183105,0.0102356,
2280,-0.0164795,0.0102722,
2282,0.0183105,0.0103394,
2284,-0.0115967,0.0103455,
2286,0.00183105,0.0102478,
2288,-0.00427246,0.0101624,
2290,0.00549316,0.010144,
2292,-0.0109863,0.0102478,
2294,0.00244141,0.0101868,
2296,-0.0146484,0.0102783,
2298,0.00427246,0.0102539,
2300,-0.0109863,0.010321,
2302,0.00549316,0.0100891,
2304,-0.0134277,0.0101318,
2306,-0.0140381,0.0102295,
2308,-0.00610352,0.0101807,
2310,0,0.0100464,
2312,0.00366211,0.00991821,
2314,0.0146484,0.00996094,
2316,-0.0286865,0.0101929,
2318,-0.00915527,0.0101807,
2320,-0.00549316,0.0101196,
2322,0.0244141,0.0102356,
2324,-0.00915527,0.0102234,
2326,0.00549316,0.0102661,
2328,0.00488281,0.0102661,
2330,-0.0366211,0.010614,
2332,-0.0012207,0.0105713,
2334,0.00183105,0.0105408,
2336,-0.0195313,0.0107361,
2338,-0.00793457,0.0107544,
2340,-0.0213623,0.0109131,
2342,-0.0177002,0.0109192,
2344,-0.0012207,0.0108826,
2346,0.00732422,0.0109436,
2348,-0.0158691,0.0109802,
2350,-0.00793457,0.0110168,
2352,-0.0012207,0.0108643,
2354,-0.00854492,0.0108826,
2356,0.00244141,0.0108704,
2358,-0.0170898,0.0109497,
2360,-0.000610352,0.0109436,
2362,-0.00793457,0.0108948,
2364,-0.0134277,0.0108093,
2366,-0.00915527,0.0108398,
2368,-0.00366211,0.0106445,
2370,-0.00793457,0.0105469,
2372,0.0152588,0.0104614,
2374,-0.022583,0.0106323,
2376,-0.0012207,0.0105408,
2378,-0.000610352,0.0102844,
2380,-0.0152588,0.0102295,
2382,0.0152588,0.0103516,
2384,0,0.0101685,
2386,0.00427246,0.010144,
2388,-0.00671387,0.0101746,
2390,-0.00671387,0.0101257,
2392,-0.00610352,0.0100952,
2394,0.00854492,0.0101501,
2396,-0.010376,0.0101807,
2398,-0.00732422,0.0101501,
2400,-0.0195313,0.0102661,
2402,0.00610352,0.0102417,
2404,-0.00671387,0.0101929,
2406,-0.0183105,0.01026,
2408,-0.00427246,0.0102966,
2410,0.0115967,0.0103333,
2412,-0.00183105,0.010321,
2414,-0.00854492,0.0103455,
2416,-0.0238037,0.0104248,
2418,-0.012207,0.0105408,
2420,0.0213623,0.0107544,
2422,-0.000610352,0.0107239,
2424,-0.0128174,0.0106689,
2426,-0.0311279,0.0108887,
2428,0.00549316,0.0108826,
2430,-0.00244141,0.010791,
2432,0.00305176,0.0105957,
2434,-0.0140381,0.0106201,
2436,-0.0115967,0.0107117,
2438,-0.00244141,0.0105713,
2440,-0.00793457,0.0102966,
2442,0.000610352,0.0101746,
2444,-0.00366211,0.0100708,
2446,0.00244141,0.0100647,
2448,0.00854492,0.010022,
2450,-0.0012207,0.00983276,
2452,0.00793457,0.00975952,
2454,-0.0109863,0.00961304,
2456,-0.0238037,0.00975342,
2458,0.0219727,0.00982056,
2460,-0.0134277,0.00988159,
2462,-0.00488281,0.00990601,
2464,-0.0292969,0.0100891,
2466,-0.0109863,0.0101501,
2468,0.00366211,0.0100708,
2470,-0.0256348,0.0101807,
2472,0.012207,0.0102234,
2474,-0.0231934,0.0103027,
2476,-0.0134277,0.0102234,
2478,-0.00610352,0.0102661,
2480,-0.00732422,0.0101746,
2482,-0.00671387,0.0100586,
2484,0.00244141,0.00996704,
2486,0.00427246,0.00999146,
2488,-0.00976563,0.0100464,
2490,-0.00305176,0.010022,
2492,0.00915527,0.0100037,
2494,0.00610352,0.0100403,
2496,0.0158691,0.0100525,
2498,-0.0109863,0.0101196,
2500,-0.00915527,0.0101013,
2502,0.00305176,0.0100769,
2504,-0.000610352,0.00994873,
2506,-0.00305176,0.00983887,
2508,-0.0213623,0.00999146,
2510,-0.00732422,0.0100647,
2512,-0.000610352,0.0100342,
2514,0.00305176,0.00991821,
2516,-0.00366211,0.00966797,
2518,-0.00305176,0.00960693,
2520,0,0.009552,
2522,0.0213623,0.00952148,
2524,-0.0189209,0.00961914,
2526,-0.00976563,0.00966187,
2528,0.00549316,0.00966797,
2530,-0.0244141,0.0095459,
2532,0.000610352,0.00953979,
2534,-0.010376,0.00962524,
2536,-0.00854492,0.00951538,
2538,-0.000610352,0.00944214,
2540,-0.0170898,0.00939941,
2542,0.00183105,0.00924072,
2544,0.0012207,0.00924072,
2546,-0.00549316,0.00922241,
2548,-0.0164795,0.00922852,
2550,-0.00488281,0.009198,
2552,-0.000610352,0.00919189,
2554,-0.00976563,0.0092041,
2556,-0.0128174,0.00930786,
2558,-0.0128174,0.00926514,
2560,-0.00427246,0.00930176,
2562,0.00671387,0.00928955,
2564,-0.0201416,0.00935669,
2566,0.0012207,0.00927734,
2568,-0.00793457,0.00932007,
2570,-0.00549316,0.00929565,
2572,-0.00366211,0.00917969,
2574,-0.010376,0.00905762,
2576,-0.00732422,0.00911865,
2578,0.00427246,0.00915527,
2580,-0.0189209,0.00919189,
2582,0.00915527,0.00913086,
2584,-0.0140381,0.00927124,
2586,-0.00305176,0.00925903,
2588,0,0.00919189,
2590,0.000610352,0.00913086,
2592,0.00549316,0.00912476,
2594,-0.00793457,0.00911865,
2596,-0.0164795,0.00917969,
2598,0,0.00910645,
2600,0.00549316,0.00896606,
2602,-0.00915527,0.00899658,
2604,-0.0177002,0.00910645,
2606,-0.00976563,0.009021,
2608,0.00671387,0.00904541,
2610,-0.0115967,0.00904541,
2612,-0.00610352,0.00908813,
2614,0.00366211,0.00903931,
2616,-0.00244141,0.00882568,
2618,0,0.00870361,
2620,-0.022583,0.00871582,
2622,0.00366211,0.00874634,
2624,-0.00427246,0.00866089,
2626,-0.0213623,0.00856323,
2628,-0.0189209,0.00869751,
2630,-0.0109863,0.00878296,
2632,-0.00854492,0.00883789,
2634,-0.00427246,0.00874023,
2636,-0.00976563,0.00872192,
2638,-0.0012207,0.00870972,
2640,-0.0201416,0.00883179,
2642,0,0.00882568,
2644,-0.00427246,0.00883179,
2646,-0.0115967,0.00892334,
2648,0.00488281,0.00888672,
2650,-0.00976563,0.00897217,
2652,0.00732422,0.00896606,
2654,-0.0128174,0.00898438,
2656,-0.0219727,0.00896606,
2658,0.0128174,0.00887451,
2660,-0.0109863,0.0088501,
2662,0.00732422,0.00887451,
2664,-0.020752,0.00878906,
2666,-0.00244141,0.00870361,
2668,0.0128174,0.00879517,
2670,-0.0152588,0.00869141,
2672,-0.00244141,0.00859375,
2674,0.00244141,0.00838623,
2676,-0.0146484,0.00839844,
2678,0.00366211,0.00837402,
2680,-0.00915527,0.00839233,
2682,-0.00427246,0.00836792,
2684,-0.00915527,0.00843506,
2686,0.012207,0.0085144,
2688,0.0012207,0.00842896,
2690,0.00244141,0.00842285,
2692,-0.0286865,0.00861816,
2694,0.0012207,0.00856934,
2696,-0.00610352,0.00847168,
2698,-0.0152588,0.0085144,
2700,-0.00366211,0.00845947,
2702,-0.0201416,0.00863037,
2704,-0.0183105,0.00880737,
2706,-0.0128174,0.00890503,
2708,-0.0115967,0.00880737,
2710,-0.0146484,0.00888062,
2712,0.00610352,0.00893555,
2714,-0.00915527,0.00899658,
2716,-0.00549316,0.00901489,
2718,0,0.00898438,
2720,-0.00549316,0.00903931,
2722,0.00854492,0.00891113,
2724,-0.0177002,0.00889893,
2726,-0.00305176,0.00883179,
2728,0.00549316,0.00883179,
2730,-0.0164795,0.00875244,
2732,-0.0109863,0.0088562,
2734,0.00427246,0.00879517,
2736,-0.00244141,0.00873413,
2738,-0.0146484,0.00887451,
2740,-0.00366211,0.00874023,
2742,-0.00427246,0.00876465,
2744,-0.00610352,0.00881348,
2746,0.010376,0.0088623,
2748,-0.00244141,0.00872192,
2750,-0.000610352,0.0086792,
2752,0.00732422,0.00874634,
2754,-0.000610352,0.00865479,
2756,0.0134277,0.00866089,
2758,-0.020752,0.00874023,
2760,-0.0195313,0.00889282,
2762,-0.000610352,0.00883179,
2764,-0.0128174,0.00875854,
2766,-0.0170898,0.00891724,
2768,-0.0177002,0.00901489,
2770,-0.0128174,0.00908813,
2772,0,0.00905151,
2774,0.00244141,0.00897217,
2776,-0.0140381,0.00903931,
2778,-0.00305176,0.0090271,
2780,-0.00305176,0.00886841,
2782,-0.00183105,0.00879517,
2784,0.00610352,0.00871582,
2786,-0.00915527,0.00877686,
2788,-0.00915527,0.00886841,
2790,-0.00610352,0.00892334,
2792,0.0109863,0.00897827,
2794,-0.0134277,0.0090332,
2796,0.00305176,0.00889893,
2798,0.0012207,0.00891113,
2800,-0.0170898,0.0090271,
2802,0.0238037,0.00917358,
2804,-0.0109863,0.00910645,
2806,-0.00610352,0.00906982,
2808,-0.00427246,0.00904541,
2810,-0.00244141,0.00895386,
2812,-0.000610352,0.00889893,
2814,0.0012207,0.00887451,
2816,-0.00732422,0.00892334,
2818,-0.00854492,0.00900879,
2820,-0.00610352,0.00884399,
2822,0.00732422,0.00888062,
2824,0.0170898,0.00900879,
2826,-0.0189209,0.00898438,
2828,-0.00244141,0.00881958,
2830,-0.00549316,0.00876465,
2832,0.00427246,0.00872192,
2834,-0.00549316,0.00873413,
2836,0.010376,0.00874023,
2838,-0.0250244,0.00897827,
2840,-0.0201416,0.00897827,
2842,0.0109863,0.00908813,
2844,-0.0177002,0.00922241,
2846,-0.010376,0.00921021,
2848,0.00427246,0.0092041,
2850,-0.0189209,0.00929565,
2852,-0.000610352,0.00922852,
2854,-0.0250244,0.00935059,
2856,-0.00671387,0.009198,
2858,0.020752,0.00927734,
2860,-0.0134277,0.00930176,
2862,-0.0164795,0.00939331,
2864,-0.0140381,0.00932617,
2866,0.00305176,0.00933228,
2868,-0.00732422,0.00927734,
2870,-0.0146484,0.00927124,
2872,-0.00183105,0.00926514,
2874,-0.00549316,0.00929565,
2876,-0.0164795,0.00931396,
2878,-0.010376,0.0093811,
2880,-0.00610352,0.00935059,
2882,0.0012207,0.00932007,
2884,0.00305176,0.00925903,
2886,-0.00671387,0.0092041,
2888,-0.00366211,0.00922852,
2890,-0.00549316,0.00925903,
2892,-0.00610352,0.0090332,
2894,0.00732422,0.00909424,
2896,0.000610352,0.00903931,
2898,0.00183105,0.00890503,
2900,-0.0256348,0.00912476,
2902,0.00732422,0.00899658,
2904,-0.00549316,0.00886841,
2906,-0.0128174,0.00886841,
2908,-0.00732422,0.00882568,
2910,0.00244141,0.00870361,
2912,0.00915527,0.00873413,
2914,-0.0274658,0.00891724,
2916,-0.00183105,0.00888062,
2918,0.00976563,0.00897827,
2920,-0.00793457,0.00900269,
2922,-0.012207,0.00903931,
2924,0.00427246,0.00890503,
2926,-0.00732422,0.00894775,
2928,0.00366211,0.00892944,
2930,-0.03479,0.00911255,
2932,-0.00183105,0.009021,
2934,0.000610352,0.00898438,
2936,-0.0140381,0.00910034,
2938,0.00488281,0.00900269,
2940,-0.0170898,0.00913696,
2942,0.00427246,0.00913696,
2944,-0.0012207,0.00908813,
2946,-0.0140381,0.00912476,
2948,0.00732422,0.00917358,
2950,-0.0183105,0.00935059,
2952,-0.00793457,0.00935669,
2954,-0.020752,0.00955811,
2956,0,0.00942383,
2958,-0.00671387,0.00928345,
2960,-0.0134277,0.00922241,
2962,0.00427246,0.00925903,
2964,-0.00366211,0.00916748,
2966,-0.00671387,0.00906372,
2968,-0.00488281,0.00893555,
2970,-0.0134277,0.00894165,
2972,0.0115967,0.00905762,
2974,-0.00244141,0.00905762,
2976,-0.0170898,0.00908813,
2978,-0.000610352,0.00906372,
2980,-0.0195313,0.00922852,
2982,0.000610352,0.00921631,
2984,-0.00915527,0.00924683,
2986,0.00488281,0.0092041,
2988,-0.00305176,0.00914307,
2990,-0.0164795,0.00924683,
2992,0.00305176,0.00916748,
2994,-0.00732422,0.00910645,
2996,-0.000610352,0.00908203,
2998,0.0128174,0.009198,
3000,-0.0115967,0.00914307,
3002,-0.00732422,0.00897827,
3004,0.00183105,0.00888672,
3006,0.020752,0.0090332,
3008,0.0109863,0.00910034,
3010,0.0238037,0.00931396,
3012,-0.00427246,0.00935059,
3014,-0.0384521,0.0097229,
3016,0.00610352,0.00971069,
3018,-0.00732422,0.00969849,
3020,-0.022583,0.00986328,
3022,-0.0238037,0.0100281,
3024,-0.0415039,0.0102722,
3026,-0.0195313,0.0102783,
3028,-0.00732422,0.0103271,
3030,-0.0183105,0.0104553,
3032,0.00549316,0.0104675,
3034,-0.0012207,0.0104248,
3036,0.00549316,0.010376,
3038,-0.00549316,0.0101807,
3040,-0.0140381,0.0101196,
3042,-0.0140381,0.0101501,
3044,-0.00427246,0.0100159,
3046,0.00488281,0.00996094,
3048,-0.00610352,0.00997925,
3050,-0.00183105,0.00980835,
3052,-0.0256348,0.0100586,
3054,0.00488281,0.00985718,
3056,0.00549316,0.00984497,
3058,-0.00488281,0.00968628,
3060,-0.0115967,0.00966797,
3062,-0.00671387,0.00957031,
3064,-0.00183105,0.00944824,
3066,-0.0115967,0.00953369,
3068,-0.00244141,0.00948486,
3070,-0.00549316,0.00939331,
3072,-0.00366211,0.00941162,
3074,0.010376,0.00946045,
3076,-0.0189209,0.00948486,
3078,-0.00427246,0.00942383,
3080,0.00244141,0.00938721,
3082,-0.0115967,0.00949097,
3084,-0.010376,0.00956421,
3086,-0.00427246,0.00953979,
3088,0.012207,0.00962524,
3090,-0.00854492,0.00965576,
3092,-0.0128174,0.0097229,
3094,0.00793457,0.009729,
3096,-0.012207,0.00984497,
3098,0.00183105,0.00984497,
3100,-0.00671387,0.00965576,
3102,-0.00366211,0.00961914,
3104,0.012207,0.00968628,
3106,-0.0292969,0.00985107,
3108,-0.00366211,0.00981445,
3110,0.0109863,0.0098999,
3112,0.0115967,0.00992432,
3114,-0.0158691,0.00980835,
3116,-0.0152588,0.00994263,
3118,-0.00366211,0.00988159,
3120,-0.0128174,0.00993042,
3122,-0.0134277,0.00994263,
3124,-0.0262451,0.0101624,
3126,-0.00366211,0.0101257,
3128,-0.0164795,0.0102539,
3130,-0.0170898,0.0100769,
3132,0.00427246,0.0101013,
3134,0.0158691,0.0102539,
3136,-0.00732422,0.0101868,
3138,-0.00610352,0.010199,
3140,0.00244141,0.0100525,
3142,0.0238037,0.0102478,
3144,0.0354004,0.0105896,
3146,-0.055542,0.0110046,
3148,-0.0195313,0.0111267,
3150,0.0115967,0.0110596,
3152,-0.00366211,0.0110168,
3154,-0.0311279,0.0111206,
3156,-0.0183105,0.0113037,
3158,-0.0231934,0.0114685,
3160,-0.00488281,0.0113831,
3162,-0.0140381,0.0114807,
3164,-0.0115967,0.0115601,
3166,0.00671387,0.0115601,
3168,-0.0115967,0.0116272,
3170,0.00549316,0.0115479,
3172,0.0195313,0.0116272,
3174,-0.0189209,0.011792,
3176,-0.00244141,0.0116455,
3178,-0.00976563,0.0117371,
3180,-0.00244141,0.0115662,
3182,-0.00366211,0.0115967,
3184,-0.00854492,0.0115906,
3186,-0.0170898,0.0117126,
3188,-0.00305176,0.0117126,
3190,0.00793457,0.0116272,
3192,-0.00793457,0.011676,
3194,-0.00671387,0.0116699,
3196,0.0158691,0.0118225,
3198,0.0164795,0.0118591,
3200,-0.0115967,0.0118591,
3202,-0.00610352,0.0118469,
3204,-0.00854492,0.0119141,
3206,0.00366211,0.0117432,
3208,-0.0109863,0.0117432,
3210,-0.0146484,0.0116516,
3212,-0.0115967,0.0117249,
3214,-0.000610352,0.0113464,
3216,0.00549316,0.0113403,
3218,-0.00549316,0.011322,
3220,-0.020752,0.0113037,
3222,0.00793457,0.011145,
3224,-0.000610352,0.0107361,
3226,-0.00244141,0.0105652,
3228,-0.0109863,0.0106018,
3230,-0.0115967,0.0105347,
3232,0.00549316,0.0105347,
3234,-0.012207,0.0106445,
3236,-0.00305176,0.0106201,
3238,0.00610352,0.0106262,
3240,-0.00366211,0.0105225,
3242,-0.0219727,0.0106018,
3244,0.0134277,0.0106934,
3246,-0.0012207,0.0106567,
3248,-0.00915527,0.0106873,
3250,-0.0189209,0.0108582,
3252,-0.0152588,0.0107544,
3254,0.000610352,0.0107117,
3256,0.00305176,0.0106873,
3258,-0.010376,0.0107422,
3260,-0.00610352,0.0106873,
3262,-0.00854492,0.0107056,
3264,-0.00488281,0.0107361,
3266,-0.0012207,0.0106323,
3268,-0.00305176,0.0106384,
3270,-0.0146484,0.01073,
3272,0.00305176,0.0107239,
3274,-0.0170898,0.010791,
3276,0.00305176,0.0106323,
3278,-0.00976563,0.0106873,
3280,-0.0109863,0.0107727,
3282,-0.000610352,0.0106628,
3284,-0.00854492,0.0106445,
3286,-0.00915527,0.0106934,
3288,-0.00244141,0.0105957,
3290,-0.0128174,0.0106384,
3292,-0.00366211,0.0105469,
3294,0.00366211,0.0105042,
3296,-0.0115967,0.010498,
3298,0.00610352,0.0105408,
3300,0.00549316,0.0105286,
3302,-0.00732422,0.0105652,
3304,-0.000610352,0.0104492,
3306,0.0158691,0.0103149,
3308,-0.020752,0.0104858,
3310,0.0012207,0.0103882,
3312,0.0158691,0.0104309,
3314,0.00854492,0.0103577,
3316,0.0158691,0.0103638,
3318,-0.043335,0.0107605,
3320,0.0134277,0.0107666,
3322,-0.0012207,0.0106445,
3324,-0.0128174,0.0105103,
3326,-0.00488281,0.0105225,
3328,-0.0128174,0.0104858,
3330,-0.0274658,0.0105896,
3332,-0.0244141,0.010791,
3334,0,0.0106323,
3336,-0.0140381,0.0106995,
3338,-0.0115967,0.0107544,
3340,-0.00854492,0.0108154,
3342,-0.00976563,0.010675,
3344,-0.00732422,0.0103943,
3346,-0.00427246,0.00988159,
3348,-0.000610352,0.00969238,
3350,0.012207,0.00969849,
3352,-0.0164795,0.00982666,
3354,-0.0115967,0.00963135,
3356,0.00183105,0.00946655,
3358,-0.00610352,0.00929565,
3360,-0.0012207,0.00925903,
3362,0.00366211,0.00915527,
3364,-0.0164795,0.0092041,
3366,-0.00854492,0.00922241,
3368,-0.010376,0.00921021,
3370,0.00671387,0.00922241,
3372,0.00488281,0.00907593,
3374,-0.00244141,0.00891113,
3376,-0.00549316,0.00894165,
3378,0.0012207,0.0088562,
3380,-0.010376,0.00893555,
3382,-0.00488281,0.00894775,
3384,0.00610352,0.00892334,
3386,-0.0012207,0.00876465,
3388,-0.00915527,0.00882568,
3390,-0.0128174,0.00887451,
3392,-0.00549316,0.0088501,
3394,0.00183105,0.00880127,
3396,-0.0177002,0.00881958,
3398,-0.0134277,0.00878906,
3400,-0.0164795,0.00883789,
3402,-0.010376,0.00888062,
3404,-0.0134277,0.00892944,
3406,0.0109863,0.00900269,
3408,-0.0201416,0.00909424,
3410,-0.0164795,0.00911255,
3412,0.00549316,0.00905151,
3414,0.00976563,0.00914307,
3416,-0.0268555,0.00935669,
3418,0.00305176,0.00933228,
3420,-0.00549316,0.00917969,
3422,0.00488281,0.00914917,
3424,-0.0183105,0.00932617,
3426,-0.0158691,0.00946045,
3428,-0.0177002,0.00952759,
3430,-0.00610352,0.00947266,
3432,-0.00793457,0.00949707,
3434,-0.0115967,0.00949097,
3436,-0.0256348,0.0097168,
3438,-0.00671387,0.0097229,
3440,-0.00366211,0.0097229,
3442,0.0177002,0.00968018,
3444,-0.00488281,0.00959473,
3446,0,0.00958252,
3448,-0.00732422,0.00956421,
3450,0.000610352,0.0093811,
3452,-0.0012207,0.00924072,
3454,-0.0146484,0.0093811,
3456,-0.00854492,0.00943604,
3458,-0.00854492,0.00941772,
3460,-0.0195313,0.009552,
3462,0.00610352,0.00952759,
3464,-0.022583,0.00970459,
3466,-0.00793457,0.00977173,
3468,-0.00610352,0.00980225,
3470,0.010376,0.00975952,
3472,-0.0109863,0.00983887,
3474,-0.0158691,0.00982666,
3476,-0.00793457,0.00987549,
3478,0.0012207,0.00979004,
3480,0.00610352,0.00974121,
3482,0.0183105,0.00991821,
3484,0.00366211,0.00986938,
3486,0.00854492,0.00986328,
3488,0.0305176,0.010144,
3490,-0.00854492,0.0101013,
3492,-0.0189209,0.0102539,
3494,0.0012207,0.0102295,
3496,-0.00244141,0.0101379,
3498,-0.0238037,0.0103149,
3500,-0.0219727,0.0104797,
3502,-0.00427246,0.0104492,
3504,-0.0238037,0.0106812,
3506,0.0146484,0.0106689,
3508,-0.00732422,0.0105347,
3510,-0.0250244,0.0107727,
3512,0.0012207,0.0106262,
3514,-0.0115967,0.0106567,
3516,-0.0195313,0.0106934,
3518,-0.0427246,0.0106873,
3520,-0.00488281,0.0106018,
3522,0.000610352,0.0105957,
3524,-0.00488281,0.0105164,
3526,0.00671387,0.0105347,
3528,0.0012207,0.0104187,
3530,-0.0415039,0.0105591,
3532,0.0213623,0.0105286,
3534,-0.000610352,0.0105347,
3536,-0.0201416,0.0105957,
3538,-0.0152588,0.0106323,
3540,-0.0201416,0.0107483,
3542,-0.0128174,0.0107788,
3544,0.00915527,0.0107971,
3546,-0.00488281,0.0108032,
3548,-0.0201416,0.0109985,
3550,-0.00854492,0.0109619,
3552,-0.00549316,0.0108521,
3554,-0.0201416,0.0109375,
3556,-0.0219727,0.0111389,
3558,-0.0189209,0.0112671,
3560,-0.0128174,0.0113831,
3562,-0.00915527,0.011438,
3564,0.000610352,0.0112793,
3566,0.00671387,0.011261,
3568,-0.020752,0.0113647,
3570,0.000610352,0.0113037,
3572,0.0439453,0.0116943,
3574,0.00671387,0.0117371,
3576,-0.0152588,0.0118347,
3578,0.0231934,0.0120544,
3580,0.0561523,0.0125122,
3582,0.012207,0.0125854,
3584,0.00915527,0.012616,
3586,0.0372314,0.0129761,
3588,0.00671387,0.0129517,
3590,0.0402832,0.0132263,
3592,0.0518799,0.0136902,
3594,-0.000610352,0.013678,
3596,-0.0170898,0.0136719,
3598,-0.0195313,0.0137329,
3600,-0.00183105,0.0135864,
3602,-0.0366211,0.0138489,
3604,-0.0250244,0.0139648,
3606,-0.00732422,0.0139282,
3608,0.00915527,0.0138184,
3610,0.0268555,0.0139221,
3612,0.0524902,0.0143921,
3614,0.0262451,0.0145569,
3616,0.00244141,0.0143127,
3618,0.03479,0.0146301,
3620,-0.0311279,0.0148865,
3622,-0.0177002,0.0150146,
3624,-0.0140381,0.0149719,
3626,-0.0366211,0.0151794,
3628,-0.0921631,0.0159241,
3630,-0.0854492,0.0167175,
3632,-0.0341797,0.01698,
3634,0.0335693,0.0171997,
3636,-0.0115967,0.0170593,
3638,-0.0250244,0.0172424,
3640,-0.0158691,0.0173645,
3642,-0.0488281,0.0176758,
3644,-0.0195313,0.0178223,
3646,0.0396729,0.018219,
3648,0.000610352,0.0181519,
3650,-0.0445557,0.0185913,
3652,-0.00488281,0.0186279,
3654,-0.0396729,0.0188782,
3656,0.00183105,0.018811,
3658,-0.0128174,0.0188538,
3660,-0.0488281,0.0191467,
3662,-0.0396729,0.0194824,
3664,-0.012207,0.0193787,
3666,-0.0567627,0.0198669,
3668,-0.0219727,0.0200256,
3670,-0.00976563,0.0200195,
3672,0.0109863,0.0200195,
3674,0.0665283,0.0205261,
3676,0.0860596,0.0213074,
3678,0.0311279,0.0216064,
3680,0.0964355,0.0225098,
3682,0.120239,0.0235291,
3684,-0.0244141,0.0237366,
3686,0.0457764,0.0241089,
3688,0.0109863,0.0239136,
3690,-0.0549316,0.0243774,
3692,-0.0457764,0.024646,
3694,-0.0457764,0.0250916,
3696,-0.0372314,0.0254395,
3698,0.00732422,0.0252747,
3700,0.0012207,0.0250671,
3702,0.0256348,0.0252808,
3704,-0.00793457,0.0251221,
3706,-0.00183105,0.0249939,
3708,0.0610352,0.025531,
3710,0.106201,0.0263428,
3712,-0.00366211,0.0263672,
3714,-0.057373,0.026825,
3716,0.0152588,0.0267822,
3718,0.0360107,0.0267151,
3720,0.0231934,0.0268982,
3722,-0.0299072,0.0271912,
3724,0.0274658,0.027417,
3726,0.057373,0.0279236,
3728,-0.032959,0.028241,
3730,0.10498,0.0288757,
3732,0.102539,0.0296875,
3734,0.0579834,0.0302612,
3736,0.0421143,0.030481,
3738,-0.0354004,0.0306824,
3740,-0.0518799,0.0309998,
3742,-0.0622559,0.0314941,
3744,-0.175781,0.0331604,
3746,-0.102539,0.034137,
3748,-0.140381,0.0353394,
3750,-0.17334,0.0369873,
3752,0.124512,0.0381775,
3754,-0.0476074,0.0384521,
3756,-0.0616455,0.0388489,
3758,0.0012207,0.0386719,
3760,0.155029,0.040094,
3762,0.0494385,0.0404968,
3764,-0.117798,0.0416687,
3766,-0.0317383,0.0419189,
3768,-0.112305,0.0428345,
3770,-0.0860596,0.043689,
3772,-0.0262451,0.043512,
3774,-0.0982666,0.0444275,
3776,-0.151367,0.0457886,
3778,0.0164795,0.0457214,
3780,-0.0372314,0.0455322,
3782,-0.0305176,0.0457153,
3784,-0.103149,0.0466553,
3786,-0.0128174,0.0464111,
3788,0.0482178,0.0468262,
3790,-0.0140381,0.0465637,
3792,-0.0567627,0.0466125,
3794,0.00549316,0.0466614,
3796,-0.0524902,0.0470154,
3798,-0.0762939,0.047583,
3800,0.022583,0.0477905,
3802,-0.0518799,0.0479431,
3804,0.0506592,0.0481995,
3806,0.169678,0.049823,
3808,0.269775,0.0524292,
3810,-0.0415039,0.0525757,
3812,0.252686,0.0545776,
3814,0.220947,0.0565247,
3816,0.00915527,0.0565918,
3818,-0.0262451,0.0565063,
3820,0.00244141,0.0562195,
3822,-0.043335,0.0564758,
3824,-0.176392,0.0580994,
3826,-0.0671387,0.0584045,
3828,-0.114136,0.0586243,
3830,-0.0964355,0.0587341,
3832,0.10376,0.0594299,
3834,0.148926,0.0605835,
3836,-0.032959,0.0607971,
3838,0.103149,0.0615784,
3840,0.00244141,0.0614441,
3842,-0.0811768,0.0617676,
3844,-0.0201416,0.0617737,
3846,-0.175781,0.0631348,
3848,-0.151978,0.0646484,
3850,-0.193481,0.0661377,
3852,-0.15686,0.0676575,
3854,-0.146484,0.0687256,
3856,-0.141602,0.0701233,
3858,-0.108032,0.0710754,
3860,-0.03479,0.0709351,
3862,-0.090332,0.0714417,
3864,0.0671387,0.071991,
3866,-0.022583,0.0716492,
3868,0.117798,0.0726074,
3870,0.0823975,0.0733337,
3872,0.0665283,0.0738892,
3874,0.0671387,0.0738953,
3876,-0.126343,0.0742981,
3878,0.15686,0.0755554,
3880,0.0933838,0.0755249,
3882,-0.0793457,0.075116,
3884,-0.205078,0.0769226,
3886,-0.0311279,0.0767761,
3888,-0.0109863,0.0767761,
3890,-0.0299072,0.0765259,
3892,0.0585938,0.0766541,
3894,-0.0164795,0.0763611,
3896,-0.101318,0.077002,
3898,-0.0476074,0.0774048,
3900,0.102539,0.078418,
3902,-0.0567627,0.0787292,
3904,-0.0469971,0.0791199,
3906,-0.0683594,0.0797852,
3908,-0.032959,0.0795044,
3910,0.0683594,0.079126,
3912,0.136719,0.0804565,
3914,0.10376,0.0809204,
3916,-0.0531006,0.0812988,
3918,0.204468,0.0829834,
3920,-0.0146484,0.0828979,
3922,0.0549316,0.0831482,
3924,0.065918,0.0835327,
3926,-0.0842285,0.0838013,
3928,-0.228271,0.0857544,
3930,-0.0598145,0.0853027,
3932,-0.0494385,0.0847717,
3934,-0.0531006,0.0847229,
3936,-0.0463867,0.0847656,
3938,-0.0372314,0.0847839,
3940,-0.0952148,0.0852173,
3942,0.0891113,0.0854858,
3944,-0.00854492,0.0838135,
3946,-0.0268555,0.0830566,
3948,0.0164795,0.0818176,
3950,-0.0128174,0.0802124,
3952,0.336304,0.0823303,
3954,-0.108032,0.0829346,
3956,-0.150757,0.0838257,
3958,0.110474,0.0849182,
3960,0.0610352,0.0839783,
3962,-0.022583,0.0837097,
3964,0.0769043,0.0833008,
3966,-0.0549316,0.0835327,
3968,-0.0714111,0.0831238,
3970,-0.0421143,0.0826843,
3972,-0.00427246,0.0824646,
3974,-0.100098,0.0824829,
3976,0.00976563,0.0810669,
3978,-0.176392,0.082666,
3980,-0.0946045,0.0832397,
3982,-0.133667,0.0842712,
3984,-0.0866699,0.0841064,
3986,-0.0128174,0.0841064,
3988,-0.010376,0.083728,
3990,-0.0506592,0.0840942,
3992,-0.0115967,0.0836426,
3994,0.0366211,0.0839539,
3996,-0.03479,0.0837769,
3998,0.0622559,0.0836365,
4000,-0.0500488,0.0839111,
4002,-0.0537109,0.0839294,
4004,0.00976563,0.0835205,
4006,0.0268555,0.0820923,
4008,0.0384521,0.0797791,
4010,0.012207,0.0794861,
4012,0.132446,0.0782837,
4014,0.0543213,0.0766174,
4016,0.0402832,0.0769287,
4018,-0.0396729,0.077063,
4020,0.0628662,0.0776672,
4022,-0.0878906,0.0781128,
4024,-0.125122,0.0776001,
4026,-0.0463867,0.0773926,
4028,-0.0671387,0.0769226,
4030,-0.118408,0.0771423,
4032,-0.0695801,0.0768005,
4034,-0.00305176,0.0753418,
4036,-0.00610352,0.0750732,
4038,-0.0170898,0.0742126,
4040,-0.00366211,0.0742249,
4042,0.0317383,0.0737305,
4044,-0.03479,0.073877,
4046,0.0769043,0.0728882,
4048,0.0787354,0.0721558,
4050,-0.0292969,0.0705139,
4052,-0.00549316,0.0690002,
4054,0.0683594,0.068219,
4056,0.0616455,0.0674194,
4058,0.088501,0.0672241,
4060,-0.10376,0.0679138,
4062,0.0964355,0.0679749,
4064,-0.0012207,0.0673157,
4066,-0.067749,0.0677673,
4068,-0.0427246,0.0670166,
4070,-0.0946045,0.0671387,
4072,-0.0683594,0.067157,
4074,-0.0744629,0.0672302,
4076,-0.0689697,0.0666565,
4078,-0.0012207,0.0651001,
4080,-0.0866699,0.065033,
4082,-0.03479,0.0645874,
4084,0.111084,0.0636475,
4086,0.0128174,0.0634644,
4088,-0.0244141,0.0635986,
4090,-0.0604248,0.0639038,
4092,0.0317383,0.0636353,
4094,-0.0109863,0.0635803,
4096,-0.012207,0.0626892,
4098,-0.0891113,0.0631042,
4100,-0.0616455,0.0626953,
4102,0.0219727,0.0623474,
4104,-0.03479,0.0622253,
4106,0.0244141,0.0617859,
4108,0.0195313,0.0616516,
4110,0.00549316,0.0610229,
4112,0.0714111,0.0603699,
4114,0.111694,0.0604492,
4116,0.045166,0.0603699,
4118,-0.0244141,0.0585693,
4120,0.0720215,0.0591431,
4122,-0.0653076,0.0592468,
4124,0.0158691,0.0587463,
4126,-0.0238037,0.0581421,
4128,-0.0744629,0.056604,
4130,-0.0561523,0.0565674,
4132,-0.10498,0.0571228,
4134,-0.0579834,0.0571716,
4136,-0.0274658,0.0569824,
4138,-0.00427246,0.0566528,
4140,-0.0305176,0.0560059,
4142,0.00305176,0.0551453,
4144,0.0622559,0.0556824,
4146,0.0213623,0.0556274,
4148,0.00976563,0.0555603,
4150,0.123901,0.0566711,
4152,0.00610352,0.0533691,
4154,-0.0152588,0.0524414,
4156,-0.0115967,0.0510498,
4158,0.00671387,0.0500122,
4160,-0.0415039,0.0498169,
4162,-0.0402832,0.0499939,
4164,-0.078125,0.0500061,
4166,0.0140381,0.0495972,
4168,0.045166,0.0493347,
4170,0.0427246,0.0493408,
4172,-0.00854492,0.0493835,
4174,-0.0360107,0.0487427,
4176,0.0384521,0.0490295,
4178,0.0439453,0.0477051,
4180,-0.0152588,0.0469116,
4182,-0.0842285,0.0464172,
4184,-0.0189209,0.0457397,
4186,-0.0469971,0.0460815,
4188,-0.0183105,0.0461609,
4190,-0.0665283,0.0463196,
4192,-0.0219727,0.0464233,
4194,-0.0384521,0.0464417,
4196,0.0134277,0.046228,
4198,-0.0195313,0.0458008,
4200,-0.0158691,0.045459,
4202,0.00671387,0.044989,
4204,0.0354004,0.0452454,
4206,-0.0012207,0.044989,
4208,-0.0311279,0.0449158,
4210,0.0286865,0.0450806,
4212,-0.0109863,0.043866,
4214,-0.0311279,0.043634,
4216,0.00854492,0.0433167,
4218,0.0341797,0.0432617,
4220,-0.0390625,0.0430237,
4222,0.0372314,0.0425171,
4224,0.0427246,0.0416931,
4226,-0.0164795,0.041394,
4228,-0.0250244,0.0409729,
4230,0.0390625,0.0401794,
4232,-0.0378418,0.0398621,
4234,-0.020752,0.0400391,
4236,0.0146484,0.0401245,
4238,0.0531006,0.0404846,
4240,-0.0366211,0.0408142,
4242,-0.0292969,0.0407898,
4244,0.0146484,0.0405884,
4246,0.0201416,0.0400208,
4248,-0.0305176,0.0395386,
4250,-0.00183105,0.0392639,
4252,-0.102539,0.0402344,
4254,-0.0213623,0.0397644,
4256,-0.045166,0.0395996,
4258,-0.0488281,0.0392029,
4260,-0.0579834,0.0387451,
4262,-0.0274658,0.0380554,
4264,-0.0567627,0.0386108,
4266,-0.0012207,0.0379456,
4268,-0.0299072,0.0378174,
4270,-0.0427246,0.0372986,
4272,-0.0140381,0.0367554,
4274,-0.0427246,0.036438,
4276,0.00549316,0.0358032,
4278,0.0250244,0.0360413,
4280,0.0506592,0.0356812,
4282,0.0628662,0.0359619,
4284,0.0268555,0.0351196,
4286,-0.108643,0.0360779,
4288,0.0683594,0.0365173,
4290,-0.00366211,0.0359497,
4292,-0.0561523,0.0361938,
4294,-0.0579834,0.0366638,
4296,-0.032959,0.0368713,
4298,-0.0701904,0.0366821,
4300,-0.0158691,0.0362244,
4302,-0.0140381,0.036145,
4304,-0.00671387,0.0358643,
4306,0.0500488,0.0361206,
4308,-0.00854492,0.0360107,
4310,0.0585938,0.0365417,
4312,-0.00244141,0.0358521,
4314,0.0177002,0.0349121,
4316,-0.0256348,0.0347168,
4318,-0.0372314,0.034845,
4320,0.0305176,0.0344299,
4322,0.0756836,0.0345337,
4324,-0.0982666,0.0353577,
4326,-0.0927734,0.0360474,
4328,-0.0219727,0.0355225,
4330,-0.012207,0.035083,
4332,0.0183105,0.0342163,
4334,-0.101318,0.0346497,
4336,-0.0970459,0.0353455,
4338,0.00976563,0.0354004,
4340,0.0140381,0.0352356,
4342,0.0115967,0.035321,
4344,0.0341797,0.0350403,
4346,-0.0262451,0.0350891,
4348,-0.0457764,0.0354492,
4350,-0.0152588,0.0343628,
4352,0.0292969,0.0345947,
4354,-0.0286865,0.034729,
4356,-0.0341797,0.0349548,
4358,-0.0915527,0.0358032,
4360,-0.0476074,0.0358643,
4362,0.045166,0.0359131,
4364,-0.0750732,0.0358826,
4366,0.0115967,0.0358582,
4368,0.0183105,0.0355896,
4370,0.065918,0.0358215,
4372,0.0421143,0.0361572,
4374,0.0561523,0.0363586,
4376,-0.0396729,0.0363708,
4378,-0.0604248,0.0365356,
4380,0.109253,0.0374756,
4382,-0.0262451,0.0368958,
4384,-0.0848389,0.0375549,
4386,-0.00976563,0.0371826,
4388,0.0115967,0.0371155,
4390,-0.0311279,0.0367615,
4392,-0.0512695,0.0370544,
4394,0,0.0366699,
4396,0.0152588,0.0366882,
4398,-0.000610352,0.036499,
4400,0.0109863,0.0364502,
4402,-0.057373,0.0369568,
4404,0.00793457,0.0366821,
4406,0.0439453,0.0371094,
4408,-0.0189209,0.0369873,
4410,0.0366211,0.0370667,
4412,-0.000610352,0.0369629,
4414,-0.0146484,0.0367981,
4416,-0.00732422,0.0367859,
4418,0.0506592,0.0369507,
4420,-0.0201416,0.0367615,
4422,-0.00366211,0.0364258,
4424,-0.0469971,0.0364685,
4426,0.0134277,0.036438,
4428,0.0262451,0.0364502,
4430,0.0262451,0.036322,
4432,-0.0689697,0.0366333,
4434,0.0488281,0.0369141,
4436,-0.0512695,0.0372803,
4438,0.0244141,0.0369934,
4440,0.00671387,0.0366943,
4442,-0.0341797,0.0367432,
4444,-0.0750732,0.0373474,
4446,0.0860596,0.0380066,
4448,-0.0848389,0.0385498,
4450,-0.0384521,0.038916,
4452,-0.032959,0.0382202,
4454,0.0366211,0.0383728,
4456,-0.045166,0.0383728,
4458,-0.0299072,0.0381836,
4460,-0.03479,0.0379517,
4462,-0.0195313,0.0378723,
4464,0.00549316,0.0373596,
4466,0.0305176,0.0376526,
4468,-0.000610352,0.0373596,
4470,-0.043335,0.0373657,
4472,0.0341797,0.0375671,
4474,0.0457764,0.0375977,
4476,0.0354004,0.0378967,
4478,0.0134277,0.0377808,
4480,0.0683594,0.0379578,
4482,-0.0250244,0.0375793,
4484,-0.0323486,0.0376343,
4486,-0.00366211,0.0365845,
4488,0.00732422,0.0359741,
4490,-0.0494385,0.0364319,
4492,-0.0427246,0.0362976,
4494,-0.0439453,0.0361572,
4496,-0.0848389,0.036676,
4498,-0.0323486,0.0362976,
4500,-0.032959,0.0364685,
4502,-0.0012207,0.0363403,
4504,-0.0506592,0.0367798,
4506,-0.0286865,0.0365662,
4508,-0.0341797,0.0368225,
4510,0.0183105,0.0364197,
4512,-0.0323486,0.0367187,
4514,-0.0152588,0.0366943,
4516,0.00854492,0.0365234,
4518,0.0152588,0.0363037,
4520,0.0158691,0.0361572,
4522,0.0299072,0.0356995,
4524,-0.0323486,0.0350403,
4526,0.0152588,0.0342651,
4528,0.0653076,0.0346985,
4530,0.0231934,0.0348083,
4532,-0.00732422,0.0346985,
4534,-0.078125,0.0344666,
4536,0.0616455,0.0341125,
4538,0.0305176,0.0343201,
4540,-0.0317383,0.0344971,
4542,-0.020752,0.0345886,
4544,0.0286865,0.0345337,
4546,-0.0274658,0.0345459,
4548,-0.020752,0.0342957,
4550,0.00671387,0.0342102,
4552,0.00793457,0.0339966,
4554,-0.0189209,0.0338989,
4556,-0.0256348,0.0338135,
4558,0.00854492,0.0329834,
4560,0.0115967,0.0326233,
4562,-0.0280762,0.0324524,
4564,-0.043335,0.032135,
4566,0.0146484,0.0321655,
4568,-0.0183105,0.0321655,
4570,-0.0183105,0.0316895,
4572,0.0146484,0.0314148,
4574,-0.0311279,0.0311646,
4576,-0.0292969,0.0310608,
4578,0.0158691,0.0306152,
4580,0.0250244,0.0297729,
4582,-0.00976563,0.0296082,
4584,-0.0158691,0.0289185,
4586,-0.00976563,0.0289185,
4588,0.0012207,0.0288147,
4590,-0.0299072,0.0288025,
4592,-0.0128174,0.028418,
4594,0.0286865,0.0287048,
4596,-0.0158691,0.0287109,
4598,-0.0305176,0.02901,
4600,0.0396729,0.0292969,
4602,-0.0579834,0.029303,
4604,0.0140381,0.029364,
4606,-0.0183105,0.0291077,
4608,-0.0170898,0.0290894,
4610,0.0134277,0.0288574,
4612,-0.00854492,0.0289368,
4614,-0.0219727,0.02901,
4616,0.00915527,0.0290283,
4618,0.00732422,0.028595,
4620,0.043335,0.0288269,
4622,-0.0158691,0.028949,
4624,-0.0128174,0.0286072,
4626,-0.0115967,0.0285889,
4628,-0.0164795,0.0284912,
4630,-0.0158691,0.0283875,
4632,0.0524902,0.0282227,
4634,-0.00915527,0.0278259,
4636,0.0268555,0.0275818,
4638,0.0439453,0.0277771,
4640,-0.0390625,0.0281006,
4642,0.0402832,0.0281616,
4644,0.0811768,0.0282227,
4646,-0.112915,0.0284912,
4648,-0.022583,0.0278687,
4650,0.0292969,0.0277771,
4652,-0.00854492,0.027533,
4654,-0.0671387,0.0278381,
4656,-0.0518799,0.0279053,
4658,0.0109863,0.0277161,
4660,-0.0512695,0.0278809,
4662,0.0238037,0.0279236,
4664,-0.0201416,0.0280701,
4666,0.0549316,0.0283142,
4668,-0.00244141,0.0283325,
4670,0.0244141,0.0281433,
4672,-0.0335693,0.0281372,
4674,0.0213623,0.0278931,
4676,-0.0140381,0.0276794,
4678,0.00671387,0.0276123,
4680,-0.0616455,0.0275452,
4682,-0.010376,0.0273987,
4684,0.0195313,0.0272705,
4686,-0.0201416,0.0274353,
4688,-0.0488281,0.0278503,
4690,0.00793457,0.0274353,
4692,0.088501,0.0278931,
4694,0.010376,0.0275574,
4696,-0.0671387,0.0273804,
4698,0.022583,0.0272827,
4700,0.00244141,0.0269775,
4702,0.0256348,0.0272217,
4704,-0.0622559,0.0273376,
4706,-0.0170898,0.0272217,
4708,-0.0128174,0.0270081,
4710,-0.0305176,0.0271301,
4712,0.012207,0.0269287,
4714,0.0457764,0.0272339,
4716,-0.0701904,0.0278503,
4718,0.0299072,0.0279968,
4720,0.0286865,0.028125,
4722,0.020752,0.0280334,
4724,-0.0262451,0.0279724,
4726,-0.0177002,0.0279968,
4728,0.020752,0.0275513,
4730,-0.0262451,0.0275818,
4732,-0.03479,0.0278564,
4734,-0.0415039,0.0274902,
4736,0.00427246,0.0269165,
4738,0.012207,0.0267334,
4740,-0.0152588,0.0265686,
4742,-0.0140381,0.0265015,
4744,0.0274658,0.0264893,
4746,0.131836,0.027533,
4748,-0.055542,0.0278809,
4750,-0.020752,0.0280212,
4752,-0.000610352,0.027948,
4754,-0.0134277,0.0278931,
4756,-0.0323486,0.0279602,
4758,0.00976563,0.0279724,
4760,-0.0482178,0.0283386,
4762,-0.0598145,0.028656,
4764,0.0140381,0.028363,
4766,0.0463867,0.0286804,
4768,0.000610352,0.0285034,
4770,0.0360107,0.0286804,
4772,0.0268555,0.0288025,
4774,0.0146484,0.0286377,
4776,0.0268555,0.0286133,
4778,-0.0421143,0.0288757,
4780,0.0457764,0.0290833,
4782,-0.0506592,0.0294922,
4784,-0.03479,0.0296814,
4786,-0.00305176,0.0296143,
4788,-0.00183105,0.0296204,
4790,-0.012207,0.0294434,
4792,-0.00976563,0.0294128,
4794,0.00366211,0.0291626,
4796,0.0146484,0.0291504,
4798,-0.0518799,0.029364,
4800,-0.0140381,0.0291077,
4802,0.0518799,0.0290466,
4804,-0.0476074,0.0293823,
4806,-0.130005,0.0304993,
4808,0.00854492,0.0304138,
4810,-0.0366211,0.0306458,
4812,-0.043335,0.0309937,
4814,-0.0463867,0.0312378,
4816,0.0311279,0.0314575,
4818,-0.0708008,0.0320923,
4820,-0.00549316,0.0317139,
4822,0.0299072,0.0318542,
4824,0.0457764,0.0321838,
4826,-0.045166,0.0325195,
4828,0.065918,0.0330139,
4830,0.0213623,0.0330688,
4832,-0.0738525,0.0332825,
4834,0.0567627,0.0337585,
4836,0.00549316,0.0335449,
4838,-0.0286865,0.0333923,
4840,-0.0695801,0.0336975,
4842,0.00671387,0.0333618,
4844,0.0341797,0.0328918,
4846,0.0445557,0.0322083,
4848,-0.0549316,0.0325317,
4850,0.0311279,0.03255,
4852,-0.00427246,0.0325073,
4854,0.0488281,0.0323242,
4856,-0.0524902,0.0323303,
4858,-0.0909424,0.0331299,
4860,0.0384521,0.0330017,
4862,-0.00610352,0.0328247,
4864,-0.0537109,0.0331604,
4866,-0.0256348,0.0328674,
4868,0.0256348,0.0330994,
4870,-0.0427246,0.0332825,
4872,0.0488281,0.0334351,
4874,0.065918,0.0338806,
4876,-0.0500488,0.0342407,
4878,-0.0384521,0.0345581,
4880,0.00610352,0.0340027,
4882,0.0421143,0.0343201,
4884,-0.0878906,0.0350037,
4886,-0.0244141,0.0350464,
4888,-0.00732422,0.0346313,
4890,0.010376,0.0346558,
4892,0.0585938,0.0343567,
4894,-0.0396729,0.0346497,
4896,0.0134277,0.0341125,
4898,0.00854492,0.0339722,
4900,-0.0146484,0.0340942,
4902,-0.0244141,0.034082,
4904,-0.0543213,0.0340027,
4906,0.0195313,0.0340271,
4908,0.00915527,0.0339905,
4910,0.0256348,0.0339417,
4912,-0.090332,0.0347229,
4914,0.0549316,0.0348145,
4916,0.0915527,0.0350281,
4918,0.0317383,0.0350464,
4920,-0.0250244,0.0350098,
4922,0.0115967,0.0349182,
4924,0.00549316,0.0347107,
4926,-0.0799561,0.0353333,
4928,0.00732422,0.035199,
4930,0.00183105,0.0349548,
4932,-0.0201416,0.0348083,
4934,-0.0372314,0.0347656,
4936,-0.0390625,0.0351135,
4938,-0.00244141,0.0350159,
4940,-0.00732422,0.0349365,
4942,-0.00793457,0.0348755,
4944,0.0592041,0.0351929,
4946,-0.118408,0.0350586,
4948,0.022583,0.034729,
4950,0.0469971,0.0349915,
4952,0.0512695,0.035498,
4954,0.00244141,0.0353882,
4956,-0.043335,0.035498,
4958,0.0744629,0.036145,
4960,-0.00854492,0.0357483,
4962,-0.0152588,0.0353027,
4964,-0.0750732,0.0359131,
4966,-0.0274658,0.0357239,
4968,-0.032959,0.0360474,
4970,-0.0482178,0.0361694,
4972,-0.0634766,0.0365356,
4974,-0.0506592,0.0368958,
4976,0.020752,0.0368347,
4978,0.0134277,0.0365479,
4980,-0.065918,0.0367493,
4982,0.0360107,0.0366028,
4984,0.00671387,0.036322,
4986,0,0.0362915,
4988,0.0335693,0.0366089,
4990,0.0183105,0.0366699,
4992,0.0665283,0.0372375,
4994,-0.00244141,0.0372253,
4996,0.065918,0.037738,
4998,-0.00793457,0.0372986,
5000,0.00366211,0.0371948,
5002,0.0457764,0.0371338,
5004,0.0146484,0.0368042,
5006,-0.00549316,0.0355591,
5008,-0.00732422,0.0355469,
5010,0.0750732,0.0359314,
5012,0.0164795,0.0356628,
5014,-0.045166,0.0356506,
5016,0.0128174,0.0354675,
5018,0.0195313,0.0349548,
5020,-0.0415039,0.0353149,
5022,-0.0134277,0.0351501,
5024,-0.0445557,0.0351379,
5026,-0.0158691,0.034845,
5028,-0.0585938,0.0347717,
5030,-0.0427246,0.0349854,
5032,0.122681,0.0354736,
5034,-0.0518799,0.0354248,
5036,-0.0170898,0.0355408,
5038,0.088501,0.0361389,
5040,-0.0891113,0.0363342,
5042,0.032959,0.0365967,
5044,0.00976563,0.0363525,
5046,-0.0726318,0.0366333,
5048,-0.00732422,0.0361572,
5050,-0.0427246,0.0362732,
5052,-0.0439453,0.0366699,
5054,-0.0592041,0.0367737,
5056,-0.0146484,0.0363953,
5058,-0.0421143,0.035907,
5060,0.0183105,0.0357056,
5062,0.109863,0.0367432,
5064,-0.0878906,0.037085,
5066,-0.00427246,0.0368713,
5068,0.123901,0.037854,
5070,0.229492,0.0397217,
5072,-0.0390625,0.039624,
5074,0.00671387,0.039032,
5076,-0.0323486,0.038855,
5078,0.010376,0.0385742,
5080,-0.125122,0.0397644,
5082,-0.0164795,0.0395081,
5084,-0.0366211,0.0389954,
5086,-0.142212,0.0401733,
5088,-0.107422,0.0411743,
5090,0.0305176,0.0413757,
5092,-0.0177002,0.0409668,
5094,-0.0463867,0.0410339,
5096,0,0.0408997,
5098,0.0506592,0.0413208,
5100,-0.00488281,0.0412231,
5102,-0.0549316,0.0415283,
5104,-0.147705,0.0424622,
5106,0.0292969,0.0425598,
5108,-0.0250244,0.0427185,
5110,0.00671387,0.0425293,
5112,-0.0683594,0.0423096,
5114,-0.0146484,0.0419067,
5116,0.0622559,0.0416138,
5118,0.0543213,0.0418396,
5120,-0.0708008,0.0422974,
5122,-0.0195313,0.0423767,
5124,0.0134277,0.0424561,
5126,0.022583,0.0418823,
5128,0.0415039,0.0422241,
5130,0.0128174,0.042334,
5132,-0.0634766,0.0427673,
5134,0.0531006,0.042926,
5136,-0.0170898,0.0427063,
5138,0.0537109,0.043219,
5140,0.0665283,0.043811,
5142,-0.0579834,0.0443115,
5144,-0.020752,0.043927,
5146,0.0701904,0.0434448,
5148,-0.0671387,0.0438904,
5150,-0.0549316,0.0439697,
5152,-0.0256348,0.0437134,
5154,0.00427246,0.0437317,
5156,-0.0634766,0.0439331,
5158,-0.0292969,0.0434814,
5160,-0.00610352,0.043457,
5162,0.0244141,0.0435486,
5164,-0.0494385,0.0432922,
5166,0.119629,0.0442139,
5168,0.00244141,0.0439087,
5170,-0.0494385,0.0439209,
5172,0.0561523,0.0438477,
5174,-0.00610352,0.0434021,
5176,0.0195313,0.0433899,
5178,-0.022583,0.0434814,
5180,0.00976563,0.0429199,
5182,-0.0567627,0.0431274,
5184,-0.0231934,0.0432922,
5186,-0.0256348,0.0435486,
5188,0.0769043,0.0439819,
5190,-0.00549316,0.0438538,
5192,-0.0134277,0.0433228,
5194,0.0701904,0.0440002,
5196,0.0402832,0.0437439,
5198,-0.0335693,0.0440002,
5200,0.00793457,0.044043,
5202,0.0549316,0.0441345,
5204,-0.0158691,0.0441467,
5206,-0.0109863,0.0442017,
5208,0.03479,0.0444763,
5210,-0.00732422,0.0437988,
5212,-0.0244141,0.0438782,
5214,-0.0280762,0.0437073,
5216,-0.0836182,0.0444153,
5218,-0.0158691,0.0443787,
5220,0.03479,0.0443115,
5222,-0.0805664,0.0449829,
5224,-0.0396729,0.0449341,
5226,-0.0622559,0.0453979,
5228,-0.0238037,0.04505,
5230,0.00244141,0.0446472,
5232,0.0823975,0.0442444,
5234,-0.0262451,0.043988,
5236,0.0109863,0.043927,
5238,0.0231934,0.0432739,
5240,-0.00183105,0.0424011,
5242,-0.00610352,0.0421326,
5244,-0.010376,0.0421387,
5246,0.0421143,0.0418335,
5248,-0.0238037,0.0419983,
5250,-0.0946045,0.0425171,
5252,0.0469971,0.0425476,
5254,0.032959,0.0422852,
5256,0.00976563,0.0422363,
5258,0.078125,0.0425964,
5260,0.00671387,0.0424805,
5262,-0.0164795,0.0415466,
5264,-0.0305176,0.0409729,
5266,0.0341797,0.041272,
5268,-0.0402832,0.0404358,
5270,-0.107422,0.0392151,
5272,-0.0482178,0.0393066,
5274,-0.0756836,0.0399963,
5276,-0.0366211,0.0400391,
5278,-0.00366211,0.0399719,
5280,-0.0476074,0.0391968,
5282,0.0439453,0.0394714,
5284,0.0927734,0.040033,
5286,0.03479,0.0389587,
5288,-0.0708008,0.0385925,
5290,0.0378418,0.0386658,
5292,0.010376,0.0385925,
5294,0.00427246,0.0381714,
5296,0.00610352,0.0382324,
5298,-0.065918,0.038385,
5300,-0.0128174,0.0384644,
5302,0.0134277,0.0380493,
5304,0.0311279,0.0368835,
5306,-0.00671387,0.0366577,
5308,0.00976563,0.0365051,
5310,-0.0531006,0.036969,
5312,0.0256348,0.0365417,
5314,-0.0543213,0.0369385,
5316,0.0201416,0.0365173,
5318,-0.00549316,0.0360291,
5320,-0.0201416,0.0355225,
5322,0.0134277,0.0354614,
5324,-0.0115967,0.0354431,
5326,0.00488281,0.0352661,
5328,0.0561523,0.0354126,
5330,0.0140381,0.0354248,
5332,0.0115967,0.034906,
5334,-0.0115967,0.034491,
5336,-0.0274658,0.0345947,
5338,0.00976563,0.0341553,
5340,-0.0231934,0.0337219,
5342,0.03479,0.03349,
5344,-0.0378418,0.0336609,
5346,-0.0146484,0.0331055,
5348,0.0494385,0.0329285,
5350,-0.0195313,0.0325745,
5352,-0.0646973,0.0329651,
5354,0.00244141,0.0329468,
5356,0.032959,0.0326416,
5358,0.0653076,0.0330017,
5360,-0.0488281,0.033429,
5362,0.0689697,0.0338745,
5364,-0.0238037,0.0336182,
5366,0.0195313,0.0326172,
5368,-0.0585938,0.0331787,
5370,0.0201416,0.0328857,
5372,0.00244141,0.0323486,
5374,-0.0305176,0.0325928,
5376,-0.118408,0.0335815,
5378,0.0378418,0.0337341,
5380,-0.045166,0.0340881,
5382,-0.0158691,0.0336792,
5384,-0.0274658,0.0337219,
5386,-0.0506592,0.0339722,
5388,0.000610352,0.0332092,
5390,-0.0280762,0.0334351,
5392,0.0128174,0.033429,
5394,-0.0640869,0.0333679,
5396,0.0402832,0.0333679,
5398,0.00366211,0.0330688,
5400,0.0408936,0.0333984,
5402,0.114746,0.0339966,
5404,0.0317383,0.0341553,
5406,-0.0213623,0.034259,
5408,0.0262451,0.0341736,
5410,-0.00610352,0.0341614,
5412,0.0109863,0.0340271,
5414,0.012207,0.0338684,
5416,-0.166016,0.0346924,
5418,0.0213623,0.0347473,
5420,-0.0390625,0.03479,
5422,-0.0305176,0.0342896,
5424,-0.012207,0.0340149,
5426,0.0579834,0.0339722,
5428,0.0183105,0.0339172,
5430,0.0354004,0.0342468,
5432,-0.0628662,0.0340515,
5434,0.012207,0.0339111,
5436,0.0524902,0.0343262,
5438,0.0439453,0.0345337,
5440,-0.012207,0.0346375,
5442,-0.0720215,0.0352966,
5444,-0.0488281,0.0356812,
5446,0.00610352,0.035321,
5448,-0.00427246,0.0351257,
5450,-0.0799561,0.0349792,
5452,-0.0140381,0.0346497,
5454,-0.0762939,0.035083,
5456,-0.055542,0.0355408,
5458,-0.000610352,0.0347656,
5460,0.0213623,0.0349121,
5462,-0.0469971,0.0352173,
5464,0.012207,0.0350342,
5466,-0.000610352,0.0346985,
5468,0.0341797,0.0346375,
5470,-0.114136,0.0347046,
5472,0.00854492,0.0343079,
5474,-0.0152588,0.0337036,
5476,0.0109863,0.0334473,
5478,-0.0115967,0.0335266,
5480,0.0524902,0.0335754,
5482,0.00183105,0.0331543,
5484,-0.0799561,0.0330261,
5486,0.0970459,0.0336487,
5488,0.0811768,0.0337524,
5490,-0.0421143,0.0337952,
5492,-0.00305176,0.0337219,
5494,0.0488281,0.0341675,
5496,0.106812,0.0351746,
5498,0.0378418,0.0348938,
5500,-0.0958252,0.0357239,
5502,0.216675,0.0377563,
5504,-0.0195313,0.0376404,
5506,0.0811768,0.038385,
5508,0.0323486,0.0386108,
5510,-0.0933838,0.0390137,
5512,-0.0262451,0.0390198,
5514,-0.126953,0.0397461,
5516,-0.0390625,0.0399353,
5518,-0.0732422,0.0406128,
5520,-0.0897217,0.0413086,
5522,-0.0421143,0.0415955,
5524,-0.0366211,0.0418457,
5526,0.0256348,0.0420532,
5528,-0.0299072,0.0417908,
5530,0.10376,0.042688,
5532,-0.0305176,0.0428772,
5534,-0.0146484,0.0429077,
5536,0.0012207,0.0426453,
5538,0.0244141,0.0427917,
5540,-0.0500488,0.0430603,
5542,0.0219727,0.0429321,
5544,-0.0427246,0.042981,
5546,-0.0195313,0.0430298,
5548,-0.0146484,0.0426819,
5550,0.0335693,0.0428223,
5552,0.055542,0.0427307,
5554,-0.0146484,0.0428528,
5556,-0.020752,0.0427307,
5558,-0.0305176,0.0423828,
5560,0.00244141,0.0419189,
5562,0.0128174,0.0413574,
5564,-0.0762939,0.0418823,
5566,0.010376,0.0417908,
5568,-0.0439453,0.0416443,
5570,0.03479,0.0417908,
5572,0.0817871,0.0425842,
5574,0.0268555,0.0425476,
5576,-0.145264,0.0428162,
5578,0.101318,0.0434509,
5580,0.0341797,0.0433411,
5582,-0.0189209,0.0433716,
5584,-0.0164795,0.0432617,
5586,-0.0799561,0.0435547,
5588,0.00732422,0.0436218,
5590,0.0500488,0.0438416,
5592,0.0939941,0.0446533,
5594,-0.0109863,0.0441223,
5596,0.108032,0.0447998,
5598,0.162964,0.0463928,
5600,0.178833,0.0477722,
5602,0.0415039,0.0470398,
5604,-0.0408936,0.0471313,
5606,-0.00671387,0.0469849,
5608,-0.0817871,0.0475403,
5610,-0.0109863,0.0475891,
5612,0.0750732,0.04823,
5614,-0.147705,0.049585,
5616,-0.0524902,0.0484497,
5618,-0.0585938,0.048822,
5620,0.00793457,0.0485107,
5622,0.109863,0.0493042,
5624,0.136719,0.0505493,
5626,-0.130615,0.0512756,
5628,0.100708,0.0520996,
5630,0.0537109,0.0522827,
5632,-0.136719,0.0530212,
5634,-0.0415039,0.0533142,
5636,-0.0720215,0.0535095,
5638,-0.0933838,0.0540039,
5640,-0.108643,0.0549683,
5642,-0.0646973,0.054895,
5644,-0.0341797,0.0547485,
5646,-0.0738525,0.055426,
5648,0.10498,0.0564331,
5650,-0.0268555,0.0559021,
5652,0.0500488,0.0562622,
5654,0.00610352,0.0555603,
5656,0.00610352,0.0550659,
5658,0.00854492,0.0551453,
5660,0.0616455,0.0555481,
5662,0.0134277,0.0552124,
5664,-0.0994873,0.0560852,
5666,0.0158691,0.0562378,
5668,0.0201416,0.0560974,
5670,-0.0164795,0.0551208,
5672,0.143433,0.0564697,
5674,0.00183105,0.0563354,
5676,0.00549316,0.0562805,
5678,0.0793457,0.056958,
5680,0.111084,0.0575439,
5682,0.00183105,0.0575439,
5684,0.117188,0.0579163,
5686,-0.100708,0.0579529,
5688,0.0231934,0.057373,
5690,0.0787354,0.0577393,
5692,0.192261,0.0596313,
5694,0.0469971,0.059613,
5696,-0.100708,0.059552,
5698,-0.10376,0.0602112,
5700,0.152588,0.0607788,
5702,0.0854492,0.0594666,
5704,-0.162964,0.0609009,
5706,-0.135498,0.0614441,
5708,-0.149536,0.062616,
5710,-0.00915527,0.0617737,
5712,-0.147705,0.0629883,
5714,-0.136719,0.0630859,
5716,-0.0628662,0.063324,
5718,-0.00854492,0.062677,
5720,0.108643,0.0628662,
5722,0.0299072,0.0627441,
5724,-0.0323486,0.0627014,
5726,-0.0634766,0.0630798,
5728,-0.0891113,0.0636719,
5730,-0.0726318,0.0633606,
5732,-0.0335693,0.0633911,
5734,-0.123291,0.0644775,
5736,-0.164185,0.0661072,
5738,-0.111694,0.06698,
5740,-0.109253,0.067572,
5742,0.0549316,0.0679016,
5744,0.0860596,0.068335,
5746,0.13916,0.0695313,
5748,0.274048,0.0721252,
5750,0.0134277,0.0719238,
5752,0.0671387,0.0720398,
5754,0.137329,0.0732666,
5756,0.119629,0.0742554,
5758,-0.0115967,0.0740662,
5760,0.132446,0.0753662,
5762,-0.143433,0.0766724,
5764,-0.0360107,0.0762695,
5766,0.140991,0.0775757,
5768,-0.0305176,0.0774414,
5770,-0.0610352,0.0777039,
5772,-0.00244141,0.0769104,
5774,-0.10437,0.0776855,
5776,-0.0518799,0.0767517,
5778,-0.117188,0.0769104,
5780,-0.163574,0.0782043,
5782,-0.135498,0.0793701,
5784,-0.13916,0.0805969,
5786,-0.115967,0.080957,
5788,-0.0537109,0.0814209,
5790,-0.065918,0.0815796,
5792,-0.0213623,0.0808533,
5794,-0.0146484,0.0808899,
5796,-0.0610352,0.0804199,
5798,-0.0402832,0.0791931,
5800,0.0231934,0.0776367,
5802,0.0311279,0.077533,
5804,-0.0671387,0.0777954,
5806,-0.0415039,0.0781433,
5808,-0.0280762,0.0776062,
5810,-0.0183105,0.0776794,
5812,-0.0372314,0.077301,
5814,-0.00183105,0.0758423,
5816,-0.0378418,0.0756958,
5818,0.0378418,0.0754883,
5820,0.00427246,0.0754517,
5822,-0.0152588,0.0745056,
5824,0.0256348,0.0733948,
5826,0.0012207,0.0721008,
5828,0.00793457,0.0711731,
5830,-0.00244141,0.0706604,
5832,-0.0604248,0.0698975,
5834,-0.0274658,0.0697571,
5836,0.032959,0.0693665,
5838,-0.0360107,0.0687927,
5840,-0.0848389,0.0685547,
5842,-0.0195313,0.068103,
5844,-0.0317383,0.0680786,
5846,0.0305176,0.0676453,
5848,0.00244141,0.0666199,
5850,-0.00854492,0.0664368,
5852,0.0744629,0.0666809,
5854,0.045166,0.0670715,
5856,-0.000610352,0.0670166,
5858,0.0244141,0.0671753,
5860,-0.00793457,0.0666382,
5862,-0.00488281,0.0665527,
5864,0.0238037,0.0657959,
5866,-0.0518799,0.066156,
5868,-0.0189209,0.0661438,
5870,-0.0909424,0.0668884,
5872,-0.00610352,0.0655151,
5874,0.032959,0.0658264,
5876,0.0183105,0.0659546,
5878,0.0793457,0.0659546,
5880,0.00488281,0.0648926,
5882,0.0268555,0.0651428,
5884,0.0921631,0.0648926,
5886,-0.0244141,0.0641296,
5888,-0.0280762,0.0641785,
5890,0.0482178,0.0638733,
5892,0,0.0619507,
5894,-0.0909424,0.0623901,
5896,-0.0891113,0.0622742,
5898,-0.0317383,0.061554,
5900,-0.0402832,0.0604309,
5902,-0.0439453,0.0600159,
5904,-0.03479,0.0587341,
5906,-0.0762939,0.0581421,
5908,-0.0549316,0.057196,
5910,-0.0439453,0.0575439,
5912,-0.0732422,0.0567993,
5914,-0.0469971,0.0559021,
5916,-0.00183105,0.0552917,
5918,-0.0201416,0.0554077,
5920,-0.0109863,0.0544312,
5922,-0.022583,0.0543579,
5924,0.00671387,0.0541016,
5926,0.0280762,0.0537476,
5928,0.0219727,0.0530762,
5930,-0.067749,0.0530273,
5932,0.0744629,0.0534363,
5934,-0.00305176,0.0522339,
5936,-0.0408936,0.051001,
5938,-0.0189209,0.0500732,
5940,-0.0134277,0.049115,
5942,-0.012207,0.0486877,
5944,-0.0213623,0.0480408,
5946,-0.0189209,0.0468384,
5948,0.0561523,0.0446594,
5950,0.0140381,0.0446655,
5952,-0.0891113,0.0448853,
5954,0.012207,0.043634,
5956,0.00976563,0.0425354,
5958,-0.0476074,0.0428955,
5960,-0.0830078,0.0424011,
5962,-0.00793457,0.0410461,
5964,-0.0646973,0.041333,
5966,-0.020752,0.0401306,
5968,0.00244141,0.0398499,
5970,0.000610352,0.0392456,
5972,-0.0158691,0.0393799,
5974,0.055542,0.0388916,
5976,0.0708008,0.0390808,
5978,0.0244141,0.0381531,
5980,-0.0134277,0.0366516,
5982,0.00976563,0.0353943,
5984,0.0805664,0.0348083,
5986,-0.0195313,0.033844,
5988,-0.020752,0.0335144,
5990,-0.000610352,0.0328613,
5992,-0.0109863,0.0327576,
5994,-0.0115967,0.0327271,
5996,-0.0109863,0.0322266,
5998,0.0512695,0.0323364,
6000,-0.0354004,0.0324585,
6002,0.0213623,0.0323608,
6004,0.0524902,0.0322144,
6006,0.0811768,0.0326111,
6008,0.0415039,0.0327454,
6010,0.0805664,0.0333679,
6012,0.0372314,0.0333679,
6014,0.0482178,0.0338318,
6016,0.0537109,0.0339905,
6018,-0.00610352,0.0336731,
6020,0.043335,0.0340637,
6022,0.0732422,0.0346436,
6024,0.0384521,0.0347717,
6026,0.0933838,0.0356934,
6028,0.0476074,0.0360901,
6030,-0.010376,0.0361694,
6032,0.0372314,0.0359375,
6034,0.0366211,0.0360291,
6036,-0.0128174,0.0358276,
6038,-0.0280762,0.0357483,
6040,-0.0842285,0.0357422,
6042,-0.0506592,0.0360535,
6044,-0.0274658,0.0360107,
6046,-0.00976563,0.0358032,
6048,0.0177002,0.0359558,
6050,-0.0299072,0.0361694,
6052,0.10437,0.0364685,
6054,0.0488281,0.0365051,
6056,-0.00183105,0.0365173,
6058,0.00610352,0.0363342,
6060,0.065918,0.0369141,
6062,0.0189209,0.0370544,
6064,0.00488281,0.0368652,
6066,0.057373,0.0369202,
6068,-0.0268555,0.0369995,
6070,0.000610352,0.0360962,
6072,-0.0152588,0.0361877,
6074,-0.00549316,0.0359131,
6076,-0.0012207,0.0357422,
6078,-0.00427246,0.0349915,
6080,-0.0280762,0.0352234,
6082,-0.0109863,0.0350647,
6084,0.0012207,0.0341553,
6086,-0.00488281,0.03396,
6088,-0.00183105,0.0336975,
6090,0.0152588,0.0333679,
6092,-0.00976563,0.0334656,
6094,0.00427246,0.0325989,
6096,0.00915527,0.0317993,
6098,0.00732422,0.0315552,
6100,0.0170898,0.0313232,
6102,0,0.0308838,
6104,0.00915527,0.0306274,
6106,-0.00671387,0.0299316,
6108,-0.00793457,0.0294617,
6110,0.00976563,0.0291199,
6112,0.0354004,0.0287415,
6114,-0.0213623,0.0284851,
6116,0.000610352,0.0284729,
6118,0.00976563,0.0283691,
6120,0.022583,0.0284851,
6122,-0.00305176,0.0282898,
6124,-0.00549316,0.0282776,
6126,-0.0323486,0.0283203,
6128,0.0128174,0.0282288,
6130,-0.00854492,0.0276367,
6132,-0.03479,0.02724,
6134,-0.00610352,0.0272705,
6136,0.00976563,0.0269592,
6138,-0.0335693,0.0271057,
6140,-0.00610352,0.0270325,
6142,0.0384521,0.0272949,
6144,-0.00610352,0.0271423,
6146,0.000610352,0.0269592,
6148,-0.0195313,0.026593,
6150,-0.0012207,0.0264648,
6152,-0.00244141,0.0255981,
6154,0.0012207,0.0254883,
6156,-0.0189209,0.0255798,
6158,0.00366211,0.0251404,
6160,-0.010376,0.0244141,
6162,0.0134277,0.024469,
6164,-0.00549316,0.023877,
6166,-0.00671387,0.0237366,
6168,0.00305176,0.0237427,
6170,0.012207,0.0238586,
6172,-0.00244141,0.0237244,
6174,-0.0305176,0.0234741,
6176,0.0140381,0.0229065,
6178,-0.0109863,0.0227722,
6180,-0.00549316,0.0226929,
6182,-0.00427246,0.0226379,
6184,0.0134277,0.0219666,
6186,0.000610352,0.0217773,
6188,0.0177002,0.0217468,
6190,-0.012207,0.0218628,
6192,0.00793457,0.0218323,
6194,-0.00244141,0.0217407,
6196,0.0134277,0.0217651,
6198,-0.00366211,0.0212891,
6200,-0.0158691,0.0210938,
6202,-0.012207,0.0210022,
6204,-0.0231934,0.0207092,
6206,0.0140381,0.0200378,
6208,-0.0134277,0.0197571,
6210,-0.00183105,0.0189697,
6212,-0.00183105,0.0186157,
6214,-0.00793457,0.0182129,
6216,0.00305176,0.0177063,
6218,0.010376,0.017749,
6220,0.00366211,0.0173523,
6222,0.0152588,0.0167725,
6224,-0.00488281,0.0164368,
6226,0.0170898,0.0156738,
6228,0.00244141,0.0152222,
6230,0.0299072,0.0154175,
6232,0.00793457,0.0151245,
6234,-0.00976563,0.014856,
6236,-0.0109863,0.0148376,
6238,0.00976563,0.0146545,
6240,-0.00915527,0.0139038,
6242,-0.0189209,0.0135864,
6244,-0.0164795,0.0134766,
6246,-0.00488281,0.0134277,
6248,-0.0244141,0.0134949,
6250,-0.00549316,0.0132507,
6252,-0.012207,0.0123291,
6254,-0.0109863,0.0119507,
6256,0.0158691,0.0120911,
6258,-0.0115967,0.012146,
6260,-0.0189209,0.011676,
6262,0.00610352,0.0115479,
6264,-0.000610352,0.0115051,
6266,0.0250244,0.0111816,
6268,-0.00366211,0.0109497,
6270,-0.00366211,0.0109802,
6272,0.00244141,0.0108521,
6274,-0.010376,0.0109009,
6276,-0.00732422,0.0109619,
6278,-0.00610352,0.0109802,
6280,-0.00915527,0.010791,
6282,-0.00305176,0.0107117,
6284,-0.0244141,0.0109436,
6286,-0.0170898,0.0110657,
6288,-0.0115967,0.0111633,
6290,0.00732422,0.011084,
6292,-0.00854492,0.0110718,
6294,-0.00671387,0.0110962,
6296,-0.00671387,0.0110718,
6298,-0.00732422,0.0110718,
6300,0,0.0109009,
6302,0.00183105,0.0109192,
6304,0.0115967,0.0109436,
6306,-0.00305176,0.010907,
6308,-0.00915527,0.0109192,
6310,-0.022583,0.0110474,
6312,0.0256348,0.0109497,
6314,-0.00305176,0.0107666,
6316,-0.0146484,0.010907,
6318,0,0.0108093,
6320,-0.00427246,0.0106262,
6322,0.0262451,0.0108582,
6324,-0.0231934,0.0110352,
6326,-0.0195313,0.010907,
6328,0.00671387,0.0108459,
6330,-0.0177002,0.0109375,
6332,-0.00610352,0.0106506,
6334,-0.03479,0.0109375,
6336,-0.010376,0.0109436,
6338,-0.00915527,0.0106995,
6340,-0.020752,0.0108459,
6342,0.000610352,0.0104675,
6344,0.00549316,0.0104614,
6346,0.000610352,0.0104614,
6348,-0.0177002,0.0104431,
6350,-0.0250244,0.0106812,
6352,-0.00305176,0.0106873,
6354,-0.00854492,0.0107605,
6356,-0.00244141,0.0105957,
6358,-0.022583,0.0107849,
6360,-0.00976563,0.0107788,
6362,-0.0262451,0.010907,
6364,-0.0134277,0.0109863,
6366,-0.0115967,0.0110352,
6368,0.00488281,0.0110535,
6370,-0.0183105,0.0111145,
6372,-0.00427246,0.0111328,
6374,-0.0317383,0.011145,
6376,0.000610352,0.0110107,
6378,-0.00976563,0.0109985,
6380,-0.0012207,0.0109558,
6382,0.00488281,0.0109619,
6384,-0.00305176,0.0108582,
6386,-0.020752,0.0110596,
6388,0.0012207,0.0108948,
6390,-0.00366211,0.0108093,
6392,-0.0170898,0.0109009,
6394,0.00549316,0.0109314,
6396,0.00610352,0.0108582,
6398,0.00671387,0.0108887,
6400,-0.0128174,0.0108582,
6402,-0.0158691,0.0108948,
6404,-0.0164795,0.0108276,
6406,0.0231934,0.0109192,
6408,0.000610352,0.010791,
6410,-0.00793457,0.0108521,
6412,-0.0354004,0.0111877,
6414,-0.0244141,0.0113525,
6416,-0.000610352,0.0113281,
6418,-0.00671387,0.0112915,
6420,-0.00549316,0.0113098,
6422,-0.0219727,0.011377,
6424,-0.0500488,0.0118286,
6426,-0.00671387,0.0117249,
6428,-0.0152588,0.011853,
6430,-0.000610352,0.0115601,
6432,0.00793457,0.0115601,
6434,-0.022583,0.0116882,
6436,-0.0134277,0.0117126,
6438,0.00915527,0.0117065,
6440,0.00915527,0.0117065,
6442,-0.0115967,0.0116333,
6444,-0.0134277,0.0116028,
6446,0.00366211,0.0115906,
6448,-0.0109863,0.0114563,
6450,-0.0244141,0.0116455,
6452,-0.020752,0.011731,
6454,-0.0183105,0.0118042,
6456,-0.012207,0.0117676,
6458,-0.0195313,0.0118469,
6460,-0.0219727,0.0118774,
6462,-0.00671387,0.0118835,
6464,-0.020752,0.012085,
6466,-0.00610352,0.0118958,
6468,-0.0109863,0.011969,
6470,0.00610352,0.0119934,
6472,-0.0134277,0.0121033,
6474,-0.00915527,0.0120911,
6476,-0.000610352,0.0120239,
6478,-0.00732422,0.0120361,
6480,0.0146484,0.0120911,
6482,-0.00427246,0.0121033,
6484,-0.0195313,0.0120544,
6486,0.0250244,0.0121338,
6488,-0.00854492,0.0121033,
6490,0.000610352,0.0120361,
6492,-0.0311279,0.012262,
6494,-0.0256348,0.0124512,
6496,0.0177002,0.012561,
6498,-0.0115967,0.0126038,
6500,-0.0280762,0.0128845,
6502,-0.00671387,0.0129333,
6504,-0.0134277,0.0129517,
6506,0.032959,0.0132507,
6508,-0.012207,0.0132813,
6510,-0.022583,0.0132813,
6512,0.00488281,0.0130737,
6514,-0.00305176,0.0130737,
6516,-0.00183105,0.0129456,
6518,-0.020752,0.0131531,
6520,-0.0366211,0.0134766,
6522,0.0292969,0.0135071,
6524,-0.043335,0.0137085,
6526,0.0189209,0.0137024,
6528,0.0360107,0.0139954,
6530,-0.00305176,0.0138489,
6532,-0.0164795,0.0139526,
6534,-0.0292969,0.0138977,
6536,-0.00854492,0.0138794,
6538,-0.00244141,0.0138123,
6540,-0.0231934,0.0138367,
6542,-0.0488281,0.0143188,
6544,-0.00732422,0.0143372,
6546,-0.0299072,0.0146301,
6548,-0.0219727,0.0146729,
6550,-0.000610352,0.0144287,
6552,0.0256348,0.0146545,
6554,-0.00854492,0.0146545,
6556,-0.020752,0.0148376,
6558,-0.0262451,0.0148743,
6560,-0.0183105,0.0149597,
6562,-0.010376,0.014801,
6564,-0.0134277,0.014801,
6566,-0.0109863,0.0147949,
6568,-0.0415039,0.0151611,
6570,-0.0012207,0.0149902,
6572,-0.00732422,0.0150208,
6574,0.00915527,0.0147949,
6576,0.0213623,0.0150024,
6578,-0.0183105,0.0150879,
6580,-0.0177002,0.0152527,
6582,0.0012207,0.0152161,
6584,-0.00976563,0.0152832,
6586,-0.0213623,0.0152893,
6588,-0.0286865,0.015564,
6590,-0.0268555,0.0157959,
6592,-0.0195313,0.0158203,
6594,-0.0274658,0.01604,
6596,-0.0238037,0.016217,
6598,0.00366211,0.0161865,
6600,-0.020752,0.0162659,
6602,-0.0164795,0.016272,
6604,-0.000610352,0.0161133,
6606,-0.00549316,0.0159363,
6608,-0.0012207,0.0159424,
6610,-0.0183105,0.0160461,
6612,0,0.0156921,
6614,-0.0158691,0.0156067,
6616,0.0292969,0.0158936,
6618,0.0366211,0.0161926,
6620,-0.0390625,0.0165283,
6622,0.032959,0.0166382,
6624,-0.0012207,0.0161499,
6626,-0.00244141,0.0161072,
6628,0.00366211,0.0159912,
6630,-0.00915527,0.0160767,
6632,-0.0189209,0.0161865,
6634,-0.0384521,0.0163452,
6636,-0.00305176,0.0162415,
6638,-0.0128174,0.0162781,
6640,0.00366211,0.0162231,
6642,0.00671387,0.0161743,
6644,-0.0128174,0.0161682,
6646,-0.0012207,0.0161438,
6648,-0.010376,0.0161377,
6650,0.00793457,0.0159729,
6652,0.00427246,0.0158081,
6654,-0.0109863,0.0157349,
6656,0,0.0156128,
6658,-0.0195313,0.0156128,
6660,0.00427246,0.0154358,
6662,0.0177002,0.0155457,
6664,-0.0115967,0.0154541,
6666,0.0445557,0.0158386,
6668,0.00244141,0.0157532,
6670,0.00488281,0.015741,
6672,-0.0146484,0.0157532,
6674,-0.00610352,0.0157227,
6676,-0.00366211,0.0157532,
6678,0.00793457,0.0157593,
6680,-0.0372314,0.0159851,
6682,-0.0292969,0.0162354,
6684,-0.0317383,0.0163574,
6686,0.00976563,0.0162048,
6688,-0.0128174,0.0162476,
6690,0.00244141,0.0162659,
6692,0.0250244,0.0162048,
6694,-0.0335693,0.0162842,
6696,0.0213623,0.0163208,
6698,0.000610352,0.0162109,
6700,0.0146484,0.0160767,
6702,-0.0170898,0.0161804,
6704,-0.000610352,0.0160522,
6706,0.00732422,0.0157959,
6708,-0.00366211,0.0157104,
6710,-0.00244141,0.015509,
6712,-0.00854492,0.0155457,
6714,-0.012207,0.0156372,
6716,0.00427246,0.0156616,
6718,0.00427246,0.0154968,
6720,-0.00427246,0.0151733,
6722,-0.010376,0.0149841,
6724,-0.0128174,0.014679,
6726,-0.00427246,0.0145325,
6728,0.0292969,0.0144653,
6730,-0.0238037,0.0146729,
6732,-0.0140381,0.0146484,
6734,-0.00427246,0.0143982,
6736,0.0189209,0.014502,
6738,-0.0201416,0.014679,
6740,0.00732422,0.0145203,
6742,0.00854492,0.0141174,
6744,-0.00976563,0.0141418,
6746,0.00610352,0.0139038,
6748,0.010376,0.0137878,
6750,0.0012207,0.0137939,
6752,0.0134277,0.0136719,
6754,0.00976563,0.0136841,
6756,-0.0134277,0.0136108,
6758,-0.0134277,0.0134827,
6760,0.00854492,0.013385,
6762,-0.00610352,0.0133423,
6764,-0.0152588,0.0133606,
6766,0.00854492,0.0133362,
6768,0.00793457,0.0130005,
6770,-0.0311279,0.0132996,
6772,0.00244141,0.0132507,
6774,-0.0128174,0.0132874,
6776,-0.00549316,0.0131287,
6778,-0.00854492,0.013031,
6780,-0.00183105,0.0128723,
6782,-0.000610352,0.0128662,
6784,-0.00366211,0.0128052,
6786,-0.0238037,0.0128296,
6788,0.0189209,0.0127319,
6790,-0.00610352,0.0125244,
6792,0,0.0123291,
6794,0.00183105,0.0120728,
6796,-0.00610352,0.0118958,
6798,0.000610352,0.0118652,
6800,-0.012207,0.0117798,
6802,-0.00976563,0.0117126,
6804,-0.0146484,0.011853,
6806,0.0231934,0.01203,
6808,0.00488281,0.0120667,
6810,-0.0189209,0.0120728,
6812,0.00366211,0.0121094,
6814,-0.00549316,0.0120056,
6816,-0.00610352,0.0117737,
6818,0.00549316,0.0114624,
6820,-0.00610352,0.0111328,
6822,-0.000610352,0.0108093,
6824,-0.0213623,0.0110107,
6826,0.0170898,0.0111572,
6828,0.00915527,0.0112122,
6830,0.00366211,0.0111572,
6832,0.00488281,0.0110168,
6834,0.0012207,0.0106445,
6836,-0.0128174,0.0107422,
6838,-0.00610352,0.010675,
6840,0.00366211,0.010675,
6842,-0.00610352,0.0106689,
6844,0.0128174,0.0106689,
6846,-0.0177002,0.0108337,
6848,-0.0115967,0.0108459,
6850,0.00427246,0.0108093,
6852,0.0115967,0.0108826,
6854,-0.00915527,0.0108643,
6856,-0.00671387,0.0109314,
6858,-0.0195313,0.0109314,
6860,-0.0164795,0.0110535,
6862,0.0012207,0.0108887,
6864,-0.022583,0.0109985,
6866,-0.0128174,0.0106812,
6868,-0.0128174,0.0107849,
6870,0.00366211,0.0107727,
6872,0.0170898,0.0107971,
6874,-0.00305176,0.0107666,
6876,0.0140381,0.0108704,
6878,0.0158691,0.0109497,
6880,-0.0109863,0.0106873,
6882,-0.00610352,0.0104553,
6884,-0.00183105,0.0101563,
6886,0.00915527,0.0101501,
6888,-0.0201416,0.0102234,
6890,-0.00305176,0.0102295,
6892,0.00549316,0.0100342,
6894,-0.0183105,0.00988159,
6896,0.00915527,0.00975952,
6898,-0.00732422,0.00982666,
6900,-0.00366211,0.0097168,
6902,-0.00671387,0.00961304,
6904,-0.0012207,0.00961914,
6906,-0.0140381,0.00968628,
6908,-0.00671387,0.0097168,
6910,-0.00488281,0.00974121,
6912,0.0158691,0.00981445,
6914,-0.0012207,0.00970459,
6916,0.0213623,0.00987549,
6918,-0.0299072,0.0101318,
6920,0,0.0100891,
6922,0.00793457,0.0100647,
6924,0.00976563,0.0100342,
6926,-0.0421143,0.0104126,
6928,-0.0201416,0.010321,
6930,-0.0164795,0.0102478,
6932,0.00854492,0.0101929,
6934,0.00671387,0.0102173,
6936,-0.0195313,0.0102234,
6938,-0.0213623,0.0102356,
6940,0.00915527,0.0102539,
6942,0.0146484,0.0103149,
6944,0.00183105,0.0102356,
6946,-0.00671387,0.0102417,
6948,-0.0134277,0.0102722,
6950,0.0183105,0.0104431,
6952,-0.012207,0.0104309,
6954,0.0292969,0.0106262,
6956,-0.00488281,0.0105408,
6958,-0.0231934,0.0106384,
6960,0.00244141,0.0105774,
6962,-0.00305176,0.0105469,
6964,-0.00915527,0.0104858,
6966,0.00671387,0.0104675,
6968,-0.0128174,0.0105164,
6970,-0.00366211,0.0102417,
6972,-0.00183105,0.0102356,
6974,-0.010376,0.0102112,
6976,0,0.0101563,
6978,0.0115967,0.0101868,
6980,-0.00976563,0.0102661,
6982,0.0134277,0.0103943,
6984,-0.00488281,0.0104065,
6986,-0.00610352,0.0102295,
6988,-0.0012207,0.0100525,
6990,0.0427246,0.0104187,
6992,0.0109863,0.0105286,
6994,-0.0183105,0.0106934,
6996,0.00305176,0.0106628,
6998,-0.00366211,0.0106934,
7000,-0.00244141,0.0105957,
7002,-0.0231934,0.01073,
7004,-0.0115967,0.0106995,
7006,0.020752,0.010675,
7008,-0.0189209,0.0108154,
7010,-0.022583,0.0108521,
7012,0.00976563,0.0109131,
7014,-0.0152588,0.0110107,
7016,0.00549316,0.0110046,
7018,0.000610352,0.0109558,
7020,-0.0109863,0.0110046,
7022,0.0134277,0.0111328,
7024,-0.010376,0.0110229,
7026,-0.00183105,0.0108704,
7028,0,0.0107788,
7030,0.0012207,0.0107544,
7032,0.0140381,0.0108459,
7034,0.00305176,0.0108643,
7036,-0.010376,0.0108398,
7038,-0.0286865,0.0110657,
7040,-0.00305176,0.0110596,
7042,-0.00549316,0.0110535,
7044,-0.0012207,0.0109375,
7046,-0.00854492,0.0108459,
7048,-0.0238037,0.010968,
7050,-0.00183105,0.0109436,
7052,0.00732422,0.0109009,
7054,0.0250244,0.0110596,
7056,0.0115967,0.0111084,
7058,0.000610352,0.0109192,
7060,0.00610352,0.0108154,
7062,0.065918,0.0114624,
7064,-0.0439453,0.011676,
7066,-0.0183105,0.011731,
7068,0.00488281,0.0116516,
7070,0.00793457,0.0116943,
7072,-0.0231934,0.0117554,
7074,-0.0140381,0.0118652,
7076,-0.00366211,0.0117615,
7078,-0.00976563,0.0117004,
7080,-0.00610352,0.0116516,
7082,0.0134277,0.0117249,
7084,0.00854492,0.011792,
7086,-0.0311279,0.0120117,
7088,-0.00244141,0.0118347,
7090,-0.00610352,0.0118652,
7092,0.00183105,0.0118286,
7094,-0.00549316,0.0117004,
7096,-0.000610352,0.011615,
7098,-0.0012207,0.011554,
7100,0.00915527,0.0116089,
7102,0.0109863,0.0116516,
7104,-0.00244141,0.0116638,
7106,0.0445557,0.011969,
7108,-0.0378418,0.0122803,
7110,-0.00244141,0.0122559,
7112,-0.00671387,0.0121643,
7114,-0.0317383,0.0124695,
7116,-0.00610352,0.0123169,
7118,-0.020752,0.0122253,
7120,-0.0286865,0.0125122,
7122,-0.010376,0.0125366,
7124,-0.0213623,0.0126526,
7126,0.000610352,0.0122375,
7128,0.0317383,0.0123535,
7130,0.0421143,0.0126099,
7132,-0.00366211,0.012561,
7134,-0.0195313,0.0126892,
7136,0.0366211,0.0128601,
7138,0.00976563,0.0127441,
7140,-0.010376,0.0127563,
7142,0.00671387,0.012677,
7144,-0.0354004,0.0130127,
7146,-0.0170898,0.0131165,
7148,0.0012207,0.0129944,
7150,-0.0183105,0.0129944,
7152,0.00427246,0.012915,
7154,-0.0140381,0.0127625,
7156,-0.0280762,0.0129944,
7158,0.010376,0.0128662,
7160,-0.0323486,0.0131653,
7162,0.0231934,0.0133667,
7164,-0.0164795,0.0134399,
7166,-0.0158691,0.0135315,
7168,0.0244141,0.0136475,
7170,0.0128174,0.013739,
7172,-0.00610352,0.0137817,
7174,-0.00915527,0.0137695,
7176,0.0146484,0.013916,
7178,0.00732422,0.0138733,
7180,-0.00427246,0.0138184,
7182,-0.00671387,0.0137512,
7184,-0.0140381,0.0138428,
7186,0.0012207,0.0137939,
7188,-0.012207,0.0139038,
7190,0.000610352,0.0134827,
7192,0.0213623,0.0135864,
7194,-0.0231934,0.0136353,
7196,-0.00488281,0.0136536,
7198,-0.00732422,0.0136902,
7200,0.0195313,0.0138611,
7202,0.020752,0.0138367,
7204,0.00732422,0.0137939,
7206,-0.00854492,0.0136719,
7208,-0.00732422,0.0135559,
7210,-0.00305176,0.0133606,
7212,-0.000610352,0.013269,
7214,-0.00183105,0.0131348,
7216,-0.0134277,0.0132141,
7218,0.00671387,0.0132751,
7220,0.0189209,0.0133545,
7222,0.0109863,0.0133301,
7224,-0.00854492,0.0133118,
7226,0.00305176,0.013324,
7228,0.0152588,0.0134766,
7230,0.0170898,0.0136353,
7232,-0.0146484,0.0136414,
7234,-0.0146484,0.0137573,
7236,-0.0109863,0.0137634,
7238,-0.00793457,0.0135559,
7240,-0.00976563,0.013623,
7242,0.00305176,0.0135986,
7244,-0.00244141,0.0136108,
7246,0.00305176,0.0135559,
7248,-0.00732422,0.0133911,
7250,0.0109863,0.0134827,
7252,0.0421143,0.0138306,
7254,0.0256348,0.0138367,
7256,-0.0109863,0.0138306,
7258,0.0201416,0.0140259,
7260,0.0177002,0.0141418,
7262,0.00305176,0.0135132,
7264,-0.00305176,0.0131042,
7266,-0.00976563,0.0130188,
7268,-0.0250244,0.0132202,
7270,-0.012207,0.0132629,
7272,-0.0146484,0.0131775,
7274,-0.0012207,0.0130493,
7276,0.0219727,0.0132324,
7278,-0.00305176,0.0131653,
7280,0.0183105,0.0132874,
7282,0.0152588,0.0133057,
7284,-0.000610352,0.0132263,
7286,0.0177002,0.013092,
7288,-0.00305176,0.0130981,
7290,0.00244141,0.0130615,
7292,-0.00366211,0.0130798,
7294,-0.0115967,0.0131409,
7296,0.00671387,0.0132019,
7298,0.00244141,0.0132141,
7300,-0.0146484,0.013269,
7302,-0.00305176,0.0131897,
7304,-0.0152588,0.0133179,
7306,0,0.0128723,
7308,-0.00671387,0.012561,
7310,-0.00427246,0.0125793,
7312,-0.0189209,0.0127014,
7314,-0.00854492,0.0124695,
7316,-0.0164795,0.0125732,
7318,0.00549316,0.0124207,
7320,0.00549316,0.0121887,
7322,0.00488281,0.0121338,
7324,0.00427246,0.0119629,
7326,-0.00244141,0.0119812,
7328,0.00671387,0.011731,
7330,-0.012207,0.0114319,
7332,0.00549316,0.0114502,
7334,0.00549316,0.0113098,
7336,0.00366211,0.0109802,
7338,0.00976563,0.0109802,
7340,0.0408936,0.0112854,
7342,-0.0427246,0.0116455,
7344,0.00183105,0.0113098,
7346,0.00793457,0.0112183,
7348,0.00305176,0.0112366,
7350,-0.00671387,0.0111206,
7352,-0.000610352,0.011084,
7354,-0.0518799,0.0114624,
7356,0.0164795,0.0113464,
7358,-0.020752,0.0114502,
7360,0.0134277,0.011261,
7362,-0.00732422,0.0111023,
7364,0.00427246,0.0109802,
7366,0.0164795,0.0109863,
7368,-0.0305176,0.0110474,
7370,-0.00549316,0.0109741,
7372,0.0231934,0.011145,
7374,-0.0244141,0.0112976,
7376,-0.0109863,0.011261,
7378,0.00305176,0.0112183,
7380,0.0128174,0.0113037,
7382,0.00366211,0.0112732,
7384,-0.00488281,0.0111816,
7386,-0.0238037,0.0114075,
7388,-0.0012207,0.0112976,
7390,-0.00610352,0.0113525,
7392,-0.0012207,0.0111511,
7394,0.0128174,0.0110474,
7396,-0.0164795,0.0111633,
7398,-0.0402832,0.0114929,
7400,0.00610352,0.0113586,
7402,0.00488281,0.0112,
7404,-0.00549316,0.0111816,
7406,0.0134277,0.0112305,
7408,0.0012207,0.0111694,
7410,-0.03479,0.0114868,
7412,0.0146484,0.0116272,
7414,-0.022583,0.0118347,
7416,0.00610352,0.0117615,
7418,0.00366211,0.011731,
7420,-0.010376,0.0116455,
7422,-0.00793457,0.011615,
7424,0.020752,0.0117371,
7426,0.0360107,0.0120667,
7428,-0.0146484,0.0120605,
7430,0.00427246,0.0119324,
7432,-0.012207,0.011908,
7434,0.00183105,0.0117798,
7436,0.0170898,0.0118408,
7438,-0.0445557,0.012207,
7440,-0.0152588,0.012262,
7442,-0.00366211,0.0122681,
7444,-0.022583,0.0124695,
7446,-0.0128174,0.0125671,
7448,-0.00793457,0.0125732,
7450,-0.0109863,0.0125732,
7452,0.00854492,0.0122375,
7454,-0.000610352,0.0119873,
7456,0.0128174,0.0120056,
7458,-0.000610352,0.0118103,
7460,0.0250244,0.0118835,
7462,0.0354004,0.012207,
7464,0.0128174,0.0123047,
7466,-0.0109863,0.0123169,
7468,-0.0170898,0.0122375,
7470,0.0128174,0.0122437,
7472,-0.00366211,0.0121338,
7474,-0.0292969,0.0124146,
7476,-0.0231934,0.0124268,
7478,-0.000610352,0.0124023,
7480,-0.032959,0.0125488,
7482,-0.000610352,0.0124023,
7484,-0.00549316,0.0124512,
7486,-0.0140381,0.0124146,
7488,0.0128174,0.0125122,
7490,-0.022583,0.0127136,
7492,-0.0256348,0.0129333,
7494,0.00671387,0.0128845,
7496,0.0445557,0.0132629,
7498,-0.0262451,0.013501,
7500,0.0128174,0.0134827,
7502,0.0195313,0.0136475,
7504,-0.0128174,0.013623,
7506,-0.0158691,0.0137817,
7508,-0.012207,0.0138367,
7510,-0.00732422,0.0138672,
7512,-0.0250244,0.0139282,
7514,-0.0506592,0.0143494,
7516,-0.00671387,0.0142517,
7518,0.00183105,0.0142151,
7520,0.0250244,0.0144104,
7522,-0.022583,0.0145874,
7524,0.00183105,0.014563,
7526,-0.00183105,0.0145569,
7528,0.00427246,0.0145325,
7530,0.0219727,0.0146301,
7532,0.00488281,0.014624,
7534,-0.0115967,0.0146851,
7536,-0.0195313,0.0148437,
7538,0.00366211,0.0147827,
7540,0.00671387,0.0144409,
7542,0.00549316,0.0140686,
7544,-0.0244141,0.0142944,
7546,0.00183105,0.0142334,
7548,-0.0109863,0.0143127,
7550,-0.000610352,0.0142517,
7552,-0.0402832,0.0146484,
7554,0.0201416,0.0143311,
7556,0.00183105,0.0141846,
7558,-0.00488281,0.0140259,
7560,-0.00183105,0.0139099,
7562,-0.00793457,0.013916,
7564,-0.00305176,0.0139038,
7566,0.00793457,0.0138184,
7568,-0.0012207,0.0135254,
7570,0.00366211,0.0135071,
7572,-0.012207,0.0133972,
7574,-0.0238037,0.0133911,
7576,0.0183105,0.0134644,
7578,0.00610352,0.0134949,
7580,-0.0268555,0.0136353,
7582,-0.00488281,0.0136475,
7584,0.00549316,0.0136536,
7586,0.0146484,0.013562,
7588,0.00610352,0.0136108,
7590,0.0170898,0.0137207,
7592,0.00732422,0.0137817,
7594,-0.00305176,0.0136841,
7596,-0.0158691,0.013678,
7598,0.0195313,0.0134705,
7600,0.00732422,0.0134827,
7602,-0.0299072,0.0137329,
7604,-0.0146484,0.0138245,
7606,0.0012207,0.0137024,
7608,-0.0244141,0.0139343,
7610,-0.0012207,0.0135986,
7612,-0.0170898,0.013623,
7614,-0.00915527,0.0134888,
7616,0.0128174,0.0135559,
7618,-0.0158691,0.013678,
7620,0.00793457,0.0136536,
7622,-0.0109863,0.0136841,
7624,0.0109863,0.0135864,
7626,-0.00854492,0.0133118,
7628,-0.012207,0.0132874,
7630,0.0494385,0.013739,
7632,0.00610352,0.013678,
7634,-0.045166,0.0141113,
7636,-0.0128174,0.0140686,
7638,-0.00183105,0.0136414,
7640,-0.0109863,0.0135986,
7642,-0.00488281,0.0136108,
7644,-0.0268555,0.0136536,
7646,-0.020752,0.0137329,
7648,-0.0219727,0.0138733,
7650,-0.00305176,0.0137939,
7652,0.000610352,0.0137146,
7654,0.0109863,0.0138184,
7656,0,0.0136902,
7658,-0.00610352,0.0137451,
7660,0.00244141,0.0135193,
7662,-0.00610352,0.0132263,
7664,0.000610352,0.0131042,
7666,-0.0012207,0.0130066,
7668,-0.00305176,0.0128662,
7670,-0.00305176,0.0127686,
7672,-0.00305176,0.0127625,
7674,-0.0128174,0.0125977,
7676,-0.00671387,0.0124329,
7678,0.0128174,0.0125549,
7680,-0.012207,0.0123474,
7682,0.00732422,0.0124146,
7684,0.00915527,0.0124512,
7686,-0.00366211,0.0123474,
7688,0.0231934,0.0124512,
7690,0.00366211,0.012262,
7692,-0.0256348,0.012262,
7694,-0.010376,0.0122986,
7696,0.00183105,0.0118713,
7698,-0.00732422,0.0116821,
7700,-0.022583,0.0117798,
7702,-0.0317383,0.0119019,
7704,-0.0274658,0.0120483,
7706,0.00427246,0.0119324,
7708,-0.012207,0.0119324,
7710,-0.00610352,0.0119202,
7712,0.0164795,0.0118347,
7714,0.020752,0.0115356,
7716,-0.0268555,0.0117371,
7718,-0.010376,0.0118225,
7720,-0.0012207,0.0115845,
7722,-0.010376,0.0114624,
7724,0.00610352,0.0115051,
7726,0.0360107,0.0118469,
7728,-0.0628662,0.0124329,
7730,0.0012207,0.0122253,
7732,0.0012207,0.0121887,
7734,-0.00549316,0.0121277,
7736,-0.0134277,0.0120667,
7738,-0.0177002,0.012207,
7740,-0.0195313,0.0123352,
7742,-0.0164795,0.0124451,
7744,-0.00854492,0.0122864,
7746,-0.00244141,0.0122925,
7748,-0.00671387,0.0122498,
7750,0.00915527,0.0123352,
7752,-0.0128174,0.0120605,
7754,0.00305176,0.0118896,
7756,0.00488281,0.0119202,
7758,0.00610352,0.0119324,
7760,-0.00732422,0.0119873,
7762,0.00610352,0.011969,
7764,-0.0012207,0.0119507,
7766,0.00915527,0.0119629,
7768,0.0213623,0.0121643,
7770,-0.00671387,0.0121948,
7772,0.0219727,0.0122925,
7774,-0.00976563,0.0121521,
7776,-0.00427246,0.0120117,
7778,-0.00549316,0.0120056,
7780,-0.00427246,0.0117798,
7782,-0.00854492,0.0118164,
7784,-0.0140381,0.0119019,
7786,-0.00854492,0.0118408,
7788,0.00427246,0.0118225,
7790,0.0012207,0.0116638,
7792,-0.0274658,0.0118652,
7794,0.0195313,0.01203,
7796,0.0305176,0.0121765,
7798,-0.0109863,0.0120911,
7800,0.0384521,0.0124023,
7802,-0.0201416,0.0123047,
7804,-0.00366211,0.0121948,
7806,-0.00366211,0.0122192,
7808,-0.00915527,0.0120667,
7810,-0.00915527,0.012146,
7812,0.00244141,0.0119995,
7814,-0.0250244,0.0121582,
7816,-0.0238037,0.0122681,
7818,-0.0268555,0.0123779,
7820,0.0012207,0.0123108,
7822,-0.000610352,0.012207,
7824,-0.0140381,0.0122375,
7826,-0.010376,0.0122559,
7828,0.00305176,0.0121643,
7830,-0.0152588,0.0118225,
7832,0.00488281,0.0118103,
7834,-0.00427246,0.0114014,
7836,-0.0152588,0.0114258,
7838,-0.00183105,0.0114258,
7840,0.0146484,0.0114624,
7842,-0.00488281,0.0114624,
7844,0.00732422,0.0112671,
7846,-0.0238037,0.0112976,
7848,-0.0164795,0.0112427,
7850,0.0115967,0.0113281,
7852,0.0012207,0.0113342,
7854,-0.0140381,0.0113647,
7856,-0.0152588,0.0115173,
7858,-0.0128174,0.0115845,
7860,0.0274658,0.0118347,
7862,-0.020752,0.0119812,
7864,-0.0012207,0.0119873,
7866,0,0.0119751,
7868,-0.00854492,0.01203,
7870,-0.00488281,0.0120483,
7872,-0.0213623,0.0122314,
7874,-0.0158691,0.012262,
7876,-0.00671387,0.012262,
7878,-0.0201416,0.0123352,
7880,0.00427246,0.0122559,
7882,0.0305176,0.0124878,
7884,0.0012207,0.0124084,
7886,-0.00305176,0.0124023,
7888,0.0311279,0.0124817,
7890,-0.0335693,0.0127808,
7892,-0.000610352,0.0125305,
7894,0.010376,0.0125305,
7896,-0.0231934,0.0127441,
7898,-0.022583,0.0128967,
7900,-0.0109863,0.0127808,
7902,-0.0140381,0.0126038,
7904,-0.0152588,0.0124817,
7906,0.0274658,0.0127136,
7908,0.00854492,0.012677,
7910,-0.00366211,0.0126526,
7912,-0.0189209,0.012677,
7914,-0.0189209,0.0126587,
7916,0.0177002,0.0125671,
7918,-0.00610352,0.0125244,
7920,-0.0213623,0.0127258,
7922,-0.0146484,0.0127686,
7924,-0.0195313,0.0129028,
7926,-0.0158691,0.0127014,
7928,-0.0109863,0.0121826,
7930,-0.00244141,0.0121948,
7932,-0.000610352,0.0121887,
7934,0.0012207,0.012146,
7936,-0.0189209,0.0122009,
7938,-0.00671387,0.0120911,
7940,0.00366211,0.0119324,
7942,0.00183105,0.0117859,
7944,0.00305176,0.011731,
7946,0.00244141,0.011731,
7948,0.0189209,0.011853,
7950,0.0494385,0.0122559,
7952,-0.00732422,0.0122009,
7954,0.0238037,0.0124084,
7956,0.0195313,0.0125549,
7958,0.0134277,0.0126282,
7960,0.0244141,0.0127991,
7962,-0.0256348,0.0129944,
7964,0.0152588,0.0131348,
7966,-0.0390625,0.0134338,
7968,-0.0231934,0.0134521,
7970,-0.0299072,0.0136841,
7972,-0.0219727,0.0136841,
7974,-0.0463867,0.0140503,
7976,0.00488281,0.0140564,
7978,-0.0518799,0.0145203,
7980,-0.0250244,0.0147278,
7982,0.00305176,0.0146729,
7984,-0.0256348,0.0147888,
7986,0.00915527,0.0147949,
7988,-0.0256348,0.0150085,
7990,-0.00549316,0.0150513,
7992,-0.00671387,0.0148437,
7994,-0.00610352,0.0147095,
7996,-0.0128174,0.0145325,
7998,0.00244141,0.014447,
8000,0.00488281,0.0141113,
8002,-0.0115967,0.0140259,
8004,0,0.0139893,
8006,0.00244141,0.0139771,
8008,-0.00305176,0.013916,
8010,0.00732422,0.0138977,
8012,0.0012207,0.0138855,
8014,-0.0268555,0.0139038,
8016,-0.00976563,0.0137634,
8018,0.000610352,0.013501,
8020,-0.00732422,0.013562,
8022,-0.0115967,0.0136719,
8024,-0.00854492,0.0136169,
8026,0.00976563,0.0136108,
8028,0,0.0135803,
8030,0.00427246,0.0134705,
8032,0.00183105,0.0134399,
8034,0.0134277,0.0135315,
8036,0.0170898,0.0135498,
8038,0.00793457,0.0136108,
8040,-0.0256348,0.0137207,
8042,0.00732422,0.0137451,
8044,-0.00427246,0.0137146,
8046,0,0.0134766,
8048,-0.0134277,0.013446,
8050,-0.020752,0.0135376,
8052,-0.032959,0.013855,
8054,-0.00488281,0.0137634,
8056,0.00366211,0.0136475,
8058,-0.0262451,0.0137817,
8060,-0.012207,0.0136292,
8062,0.00915527,0.0135132,
8064,-0.0213623,0.0137146,
8066,0.00549316,0.0137695,
8068,0.00305176,0.0137146,
8070,0.0201416,0.0138672,
8072,0.0305176,0.0139587,
8074,-0.0152588,0.0139526,
8076,-0.010376,0.0139893,
8078,0.00183105,0.0138062,
8080,0,0.0137634,
8082,0.00976563,0.0135559,
8084,-0.00732422,0.0136169,
8086,-0.0317383,0.0139038,
8088,-0.0299072,0.0138916,
8090,-0.00427246,0.0135986,
8092,0.00305176,0.013623,
8094,0.00732422,0.0135925,
8096,-0.0494385,0.013855,
8098,0.00610352,0.0136902,
8100,-0.00976563,0.013678,
8102,-0.0170898,0.0137085,
8104,-0.0341797,0.0138977,
8106,-0.00793457,0.0137024,
8108,-0.0219727,0.0138367,
8110,-0.0134277,0.0139343,
8112,-0.012207,0.0138672,
8114,-0.00976563,0.0137756,
8116,0.00244141,0.013623,
8118,-0.00366211,0.0135986,
8120,-0.0115967,0.013501,
8122,-0.00244141,0.0133789,
8124,-0.00305176,0.0132141,
8126,-0.0012207,0.0130676,
8128,0.00488281,0.0130066,
8130,-0.00244141,0.0130066,
8132,0.000610352,0.0130066,
8134,0.0158691,0.0131531,
8136,-0.0146484,0.0131104,
8138,0.00488281,0.013092,
8140,-0.00976563,0.0131531,
8142,0.0183105,0.0133179,
8144,-0.00183105,0.0133057,
8146,-0.0177002,0.0134583,
8148,-0.00854492,0.0133545,
8150,0.00244141,0.0128845,
8152,-0.00915527,0.0129028,
8154,-0.0274658,0.0129395,
8156,0.00732422,0.0128174,
8158,-0.0128174,0.0128113,
8160,-0.0317383,0.0128845,
8162,-0.000610352,0.0126343,
8164,-0.000610352,0.0124878,
8166,0.0189209,0.0122864,
8168,-0.00244141,0.0120789,
8170,0.00366211,0.0118164,
8172,-0.00793457,0.011676,
8174,-0.010376,0.0113159,
8176,0.00610352,0.0113281,
8178,-0.00976563,0.010907,
8180,-0.00854492,0.0107422,
8182,0.00610352,0.0107727,
8184,-0.00427246,0.0105591,
8186,-0.0152588,0.0106201,
8188,-0.010376,0.0104675,
8190,0.0128174,0.0105408,
8192,0.00915527,0.0105652,
8194,-0.0152588,0.0106567,
8196,0.00305176,0.0105591,
8198,-0.0170898,0.0107056,
8200,0.0219727,0.0108765,
8202,-0.00976563,0.0108582,
8204,-0.000610352,0.0108643,
8206,0.012207,0.0109619,
8208,0.00915527,0.0110229,
8210,-0.0262451,0.0112122,
8212,-0.00732422,0.0112732,
8214,-0.00366211,0.0110413,
8216,-0.00427246,0.0109863,
8218,-0.00366211,0.0110168,
8220,-0.0341797,0.0112854,
8222,0.0341797,0.0115112,
8224,0.00915527,0.0115173,
8226,-0.0231934,0.0116516,
8228,0.0012207,0.0116638,
8230,-0.00244141,0.0116455,
8232,-0.00366211,0.0116638,
8234,-0.00671387,0.0115967,
8236,-0.0341797,0.0117676,
8238,-0.0286865,0.0119751,
8240,-0.0146484,0.0118652,
8242,-0.00915527,0.0118835,
8244,-0.00305176,0.0118713,
8246,-0.00671387,0.0119385,
8248,-0.00793457,0.0118835,
8250,0.012207,0.0117981,
8252,-0.0140381,0.0116089,
8254,0.0201416,0.0117615,
8256,0.0213623,0.0119385,
8258,-0.020752,0.0118835,
8260,-0.00549316,0.0118164,
8262,0.0335693,0.0120605,
8264,-0.00793457,0.0119263,
8266,-0.00976563,0.011969,
8268,0.0323486,0.012262,
8270,-0.0244141,0.0123047,
8272,0.00244141,0.0120239,
8274,0.0280762,0.0121521,
8276,-0.0250244,0.0122986,
8278,0.022583,0.0125061,
8280,0.00366211,0.0125427,
8282,0.0189209,0.0126343,
8284,-0.0335693,0.0128967,
8286,-0.00366211,0.012616,
8288,-0.0189209,0.0125061,
8290,-0.00915527,0.0125549,
8292,-0.012207,0.0126465,
8294,-0.032959,0.0129028,
8296,-0.0128174,0.0125366,
8298,-0.0262451,0.012738,
8300,-0.0134277,0.0127747,
8302,-0.00183105,0.0126221,
8304,-0.00793457,0.0123596,
8306,0.00732422,0.0123535,
8308,0.0189209,0.012323,
8310,0.0286865,0.0124756,
8312,0.00366211,0.0123901,
8314,-0.0250244,0.0125427,
8316,-0.00854492,0.0126038,
8318,0.0378418,0.0129456,
8320,-0.022583,0.0130554,
8322,-0.0372314,0.0134033,
8324,0.00488281,0.0134216,
8326,-0.00549316,0.0134644,
8328,-0.0177002,0.0135925,
8330,0.0213623,0.0137817,
8332,-0.0238037,0.0140137,
8334,0.0201416,0.0140564,
8336,-0.00366211,0.0139465,
8338,-0.0195313,0.014093,
8340,-0.0256348,0.0142517,
8342,-0.0152588,0.0142212,
8344,-0.020752,0.0144104,
8346,-0.012207,0.0143555,
8348,-0.0183105,0.0144531,
8350,-0.0372314,0.014801,
8352,0.00854492,0.0147949,
8354,0.0115967,0.0146362,
8356,0.0152588,0.0147156,
8358,-0.020752,0.0147949,
8360,-0.0146484,0.014624,
8362,-0.00366211,0.0146545,
8364,-0.020752,0.014856,
8366,-0.00305176,0.0146973,
8368,-0.00671387,0.01474,
8370,0.0256348,0.0149597,
8372,-0.0311279,0.0151917,
8374,-0.020752,0.0152954,
8376,0.00793457,0.0153137,
8378,0.0201416,0.0154175,
8380,-0.0183105,0.0155151,
8382,-0.00183105,0.0154724,
8384,-0.0189209,0.0156189,
8386,-0.0146484,0.0156128,
8388,0.0183105,0.0156921,
8390,-0.00183105,0.0155823,
8392,0.00976563,0.0155884,
8394,-0.0177002,0.0156128,
8396,0.0244141,0.0158264,
8398,-0.0134277,0.0157898,
8400,0.012207,0.0156921,
8402,-0.0012207,0.0156067,
8404,0.00427246,0.0156433,
8406,-0.0219727,0.015741,
8408,-0.00976563,0.0157471,
8410,-0.0177002,0.0156616,
8412,-0.0268555,0.0158569,
8414,0.0146484,0.0159668,
8416,-0.0274658,0.0161987,
8418,-0.00671387,0.0162292,
8420,-0.0177002,0.0160645,
8422,0.0164795,0.0158875,
8424,0.00366211,0.0158325,
8426,0.0152588,0.0157532,
8428,0.00244141,0.0157654,
8430,0.012207,0.015863,
8432,0.0268555,0.016095,
8434,-0.0140381,0.0161682,
8436,0.0335693,0.0161621,
8438,-0.03479,0.0162231,
8440,0.043335,0.01651,
8442,-0.0262451,0.0166809,
8444,0.00854492,0.0167358,
8446,-0.0280762,0.0169495,
8448,-0.0598145,0.0174683,
8450,0.0146484,0.0174927,
8452,0.0115967,0.0174683,
8454,-0.0567627,0.0178345,
8456,-0.045166,0.0180725,
8458,-0.0231934,0.0180969,
8460,-0.0152588,0.0181946,
8462,-0.0189209,0.0180481,
8464,-0.020752,0.0181763,
8466,-0.0128174,0.0182068,
8468,-0.0292969,0.0181763,
8470,-0.0158691,0.0180908,
8472,-0.00732422,0.0181396,
8474,-0.0109863,0.0179688,
8476,-0.0317383,0.0180359,
8478,0.0128174,0.0179382,
8480,-0.00915527,0.0179932,
8482,-0.0311279,0.0181152,
8484,-0.0012207,0.0177917,
8486,0.0256348,0.0180115,
8488,-0.010376,0.017926,
8490,-0.00915527,0.017926,
8492,0.00976563,0.0179016,
8494,0.0262451,0.0178345,
8496,-0.0372314,0.0180786,
8498,-0.00183105,0.0178345,
8500,0.0390625,0.0180908,
8502,-0.0311279,0.0183838,
8504,0.00427246,0.0183472,
8506,0.0164795,0.0184387,
8508,-0.0177002,0.0184265,
8510,0.0012207,0.0181519,
8512,0.020752,0.0183228,
8514,-0.00671387,0.0181396,
8516,0.0012207,0.0180664,
8518,0.00976563,0.0177856,
8520,-0.0415039,0.0179749,
8522,-0.0396729,0.0179993,
8524,-0.0012207,0.0179626,
8526,-0.00427246,0.0179504,
8528,-0.0524902,0.0182983,
8530,-0.0231934,0.0183167,
8532,-0.0341797,0.0184204,
8534,-0.0195313,0.0184143,
8536,-0.0250244,0.0186279,
8538,0.00732422,0.0185059,
8540,-0.0140381,0.0183899,
8542,0.03479,0.0185852,
8544,-0.0146484,0.0185242,
8546,-0.00671387,0.0184692,
8548,-0.0311279,0.0185974,
8550,0.0280762,0.0185059,
8552,0.00610352,0.0184814,
8554,-0.0189209,0.0185547,
8556,-0.0299072,0.0187012,
8558,-0.0219727,0.0187134,
8560,-0.0201416,0.0187683,
8562,-0.00793457,0.018811,
8564,-0.0238037,0.0188416,
8566,-0.00183105,0.0188293,
8568,0.00549316,0.0188171,
8570,-0.0305176,0.018866,
