Felipe_A-L01
Gráfico creado el:2026-06-10 18:26:11.631
Registro en:2026-06-10 18:31:34.361
2 mseg/muestras
2 canales
EMG
mV
EMG Integrado
mV-sec
milliSec,CH1,CH40,
,263338 samples,263338 samples,
0,-0.0164795,0.000164795,
2,0.0286865,0.00045166,
4,-0.00427246,0.000494385,
6,0.0012207,0.000506592,
8,-0.00732422,0.000579834,
10,0.0012207,0.000592041,
12,0.0213623,0.000805664,
14,-0.0140381,0.000946045,
16,0.0299072,0.00124512,
18,-0.0109863,0.00135498,
20,0.0012207,0.00136719,
22,0.0244141,0.00161133,
24,-0.0360107,0.00197144,
26,0.0463867,0.0024353,
28,0.00183105,0.00245361,
30,-0.0183105,0.00263672,
32,0.020752,0.00284424,
34,-0.0445557,0.00328979,
36,0.0476074,0.00376587,
38,0.0146484,0.00391235,
40,-0.0256348,0.0041687,
42,0.0384521,0.00455322,
44,-0.0219727,0.00477295,
46,0.0189209,0.00496216,
48,0.00488281,0.00501099,
50,-0.0115967,0.00512695,
52,0.0402832,0.00552979,
54,0.00183105,0.0055481,
56,-0.00427246,0.00559082,
58,-0.00732422,0.00566406,
60,-0.00427246,0.00570679,
62,0.0286865,0.00599365,
64,-0.00854492,0.0060791,
66,0.0195313,0.00627441,
68,-0.0146484,0.0064209,
70,0.00671387,0.00648804,
72,0.0250244,0.00673828,
74,-0.0335693,0.00707397,
76,0.0616455,0.00769043,
78,0.00183105,0.00770874,
80,-0.0140381,0.00784912,
82,0.0396729,0.00824585,
84,-0.0469971,0.00871582,
86,0.0415039,0.00913086,
88,0.0219727,0.00935059,
90,-0.0183105,0.00953369,
92,0.0402832,0.00993652,
94,-0.0415039,0.0103516,
96,0.0170898,0.0105225,
98,0.00854492,0.0106079,
100,-0.00793457,0.0106873,
102,0.0335693,0.0110229,
104,-0.00732422,0.0110962,
106,-0.00793457,0.0111755,
108,-0.00183105,0.0111938,
110,0.000610352,0.0112,
112,0.0140381,0.0113403,
114,-0.00793457,0.0114197,
116,0.0262451,0.0116821,
118,-0.0292969,0.0119751,
120,0.00549316,0.01203,
122,0.0286865,0.0123169,
124,-0.0360107,0.012677,
126,0.0512695,0.0131897,
128,0,0.0131897,
130,-0.0128174,0.0133179,
132,0.0201416,0.0135193,
134,-0.0408936,0.0139282,
136,0.0421143,0.0143494,
138,0.0109863,0.0144592,
140,-0.0323486,0.0147827,
142,0.0372314,0.015155,
144,-0.0256348,0.0154114,
146,0.0146484,0.0155579,
148,0.0128174,0.015686,
150,-0.0152588,0.0158386,
152,0.0384521,0.0162231,
154,0.0012207,0.0162354,
156,-0.00854492,0.0163208,
158,0.000610352,0.0163269,
160,-0.00427246,0.0163696,
162,0.0262451,0.0166321,
164,-0.00549316,0.016687,
166,0.0177002,0.016864,
168,-0.0134277,0.0169983,
170,0.00671387,0.0170654,
172,0.0250244,0.0173157,
174,-0.0354004,0.0176697,
176,0.0512695,0.0181824,
178,0.0012207,0.0181946,
180,-0.0164795,0.0183594,
182,0.0292969,0.0186523,
184,-0.0390625,0.019043,
186,0.0415039,0.019458,
188,0.0158691,0.0196167,
190,-0.0231934,0.0198486,
192,0.0421143,0.0202698,
194,-0.0256348,0.0205261,
196,0.0219727,0.0207458,
198,0.012207,0.0208679,
200,-0.0109863,0.020813,
202,0.0280762,0.0208069,
204,0.00183105,0.0207825,
206,-0.00244141,0.0207947,
208,-0.000610352,0.0207275,
210,-0.00305176,0.0207458,
212,0.0286865,0.0208191,
214,-0.00366211,0.0207153,
216,0.0170898,0.0205872,
218,-0.0140381,0.0206177,
220,0.00366211,0.0206421,
222,0.0128174,0.0205261,
224,-0.0256348,0.0204224,
226,0.0482178,0.0204407,
228,0.00610352,0.0204834,
230,-0.0274658,0.020575,
232,0.0378418,0.0207458,
234,-0.0402832,0.0207031,
236,0.0518799,0.0207458,
238,0.0201416,0.0208008,
240,-0.0231934,0.0207764,
242,0.0354004,0.0207458,
244,-0.0189209,0.0207153,
246,0.0183105,0.0207092,
248,0.00793457,0.0207397,
250,-0.0152588,0.0207764,
252,0.0323486,0.020697,
254,-0.012207,0.0208008,
256,-0.0128174,0.0208862,
258,0.0012207,0.0208252,
260,-0.00854492,0.0208679,
262,0.0268555,0.0208496,
264,-0.00671387,0.0208313,
266,0.0158691,0.0207947,
268,-0.00976563,0.0207458,
270,0.0012207,0.0206909,
272,0.0238037,0.0206787,
274,-0.0323486,0.0206665,
276,0.0439453,0.0204895,
278,0.00732422,0.0205444,
280,-0.0109863,0.0205139,
282,0.0219727,0.0203369,
284,-0.0427246,0.0202942,
286,0.0341797,0.0202209,
288,0.0164795,0.020166,
290,-0.0250244,0.0202332,
292,0.0415039,0.0202454,
294,-0.0317383,0.0201477,
296,0.00793457,0.0200562,
298,0.00671387,0.0200378,
300,-0.0152588,0.0201111,
302,0.03479,0.0201233,
304,-0.00244141,0.0200745,
306,-0.0170898,0.020166,
308,-0.0012207,0.0201599,
310,-0.0140381,0.0202942,
312,0.0335693,0.0204895,
314,-0.00427246,0.0204529,
316,0.0152588,0.020343,
318,-0.00915527,0.0201416,
320,0.00244141,0.0201111,
322,0.0268555,0.0200928,
324,-0.0262451,0.0199951,
326,0.0457764,0.0199402,
328,0.00427246,0.0199829,
330,-0.0134277,0.019989,
332,0.0317383,0.020105,
334,-0.0482178,0.0201782,
336,0.0323486,0.0200806,
338,0.0128174,0.0200989,
340,-0.0201416,0.0199768,
342,0.0378418,0.0199829,
344,-0.020752,0.0199341,
346,0.012207,0.0199097,
348,0.00671387,0.0198486,
350,-0.0146484,0.0198425,
352,0.0384521,0.0198425,
354,-0.0134277,0.0199646,
356,-0.0170898,0.02005,
358,-0.00610352,0.020105,
360,-0.0189209,0.0202515,
362,0.0201416,0.0201904,
364,-0.0128174,0.0202637,
366,0.00305176,0.0201172,
368,-0.0140381,0.0201233,
370,-0.00793457,0.0201355,
372,0.020752,0.0200928,
374,-0.0354004,0.0200928,
376,0.0390625,0.0199707,
378,0.00244141,0.0199829,
380,-0.0012207,0.0198303,
382,0.0231934,0.0197693,
384,-0.0439453,0.0198181,
386,0.0317383,0.0197205,
388,0.0201416,0.0197632,
390,-0.0256348,0.0197876,
392,0.0408936,0.0197754,
394,-0.0299072,0.0198181,
396,0.010376,0.0197021,
398,0.00244141,0.0196045,
400,-0.0256348,0.019751,
402,0.0378418,0.0198486,
404,-0.0146484,0.0199768,
406,-0.0213623,0.020166,
408,-0.0012207,0.0201721,
410,-0.0146484,0.0202881,
412,0.0244141,0.0202454,
414,-0.0158691,0.0203674,
416,0.0189209,0.0203857,
418,-0.0134277,0.0203796,
420,-0.00488281,0.0203918,
422,0.0195313,0.020459,
424,-0.0366211,0.0205688,
426,0.0408936,0.0204956,
428,0.00183105,0.0204529,
430,-0.0213623,0.0203918,
432,0.0177002,0.0201904,
434,-0.0323486,0.0201111,
436,0.0354004,0.0199463,
438,0.00793457,0.0198242,
440,-0.0201416,0.0197937,
442,0.0445557,0.0198853,
444,-0.0219727,0.0199158,
446,0.0134277,0.0198669,
448,0.00854492,0.019873,
450,-0.0183105,0.0199036,
452,0.0402832,0.0199829,
454,-0.0164795,0.0200256,
456,-0.0115967,0.0200134,
458,0.00854492,0.0200867,
460,-0.0158691,0.0201599,
462,0.0299072,0.0201904,
464,-0.0140381,0.0202637,
466,0.0177002,0.020282,
468,-0.0115967,0.0203003,
470,-0.00732422,0.0203613,
472,0.0177002,0.0203003,
474,-0.0305176,0.020282,
476,0.0408936,0.0202515,
478,0.00854492,0.0202637,
480,-0.032959,0.0204834,
482,0.0244141,0.0205078,
484,-0.0439453,0.02052,
486,0.0299072,0.0204773,
488,0.00671387,0.0203796,
490,-0.0360107,0.0204895,
492,0.0427246,0.0205017,
494,-0.0274658,0.020459,
496,0.00976563,0.0204773,
498,0.00976563,0.0205078,
500,-0.0183105,0.0205383,
502,0.0360107,0.0205505,
504,0.00244141,0.0205505,
506,-0.0177002,0.0205566,
508,0.00305176,0.020575,
510,-0.0134277,0.0205688,
512,0.0231934,0.0204651,
514,-0.0195313,0.0206177,
516,0.0213623,0.0206787,
518,-0.00610352,0.0206482,
520,-0.00854492,0.0207092,
522,0.0195313,0.020636,
524,-0.0286865,0.0206604,
526,0.0537109,0.0207397,
528,0.00915527,0.0207886,
530,-0.0244141,0.0208984,
532,0.0244141,0.0208252,
534,-0.0408936,0.020752,
536,0.0292969,0.0207214,
538,0.010376,0.020697,
540,-0.0274658,0.0207703,
542,0.0518799,0.0209106,
544,-0.0183105,0.0208862,
546,0.0177002,0.0209412,
548,0.0170898,0.0210449,
550,-0.0183105,0.0210815,
552,0.0408936,0.021106,
554,-0.00488281,0.0210205,
556,-0.00488281,0.0208984,
558,0.00854492,0.0209229,
560,0.00183105,0.020752,
562,0.0524902,0.0210754,
564,0.0115967,0.0210632,
566,0.0366211,0.0213989,
568,-0.0012207,0.0212708,
570,-0.0146484,0.0213379,
572,0.0311279,0.0214417,
574,-0.0427246,0.0215149,
576,0.0164795,0.0212891,
578,-0.0268555,0.0215332,
580,-0.0622559,0.0221436,
582,0.00915527,0.0220032,
584,-0.0610352,0.0221741,
586,0.0323486,0.0221802,
588,0.0146484,0.0221252,
590,-0.0286865,0.0221558,
592,0.0390625,0.0221375,
594,-0.0250244,0.0220886,
596,0.00976563,0.0220825,
598,0.00671387,0.0221252,
600,-0.022583,0.0220947,
602,0.0427246,0.0221436,
604,-0.00488281,0.0220459,
606,-0.0128174,0.0219604,
608,0.00427246,0.021991,
610,-0.00427246,0.0218872,
612,0.0164795,0.0218079,
614,0.00366211,0.0216858,
616,0.0109863,0.0216064,
618,-0.0012207,0.0214844,
620,-0.00610352,0.0214966,
622,0.0244141,0.0215454,
624,-0.0231934,0.0214111,
626,0.043335,0.0214355,
628,0.00366211,0.0214539,
630,-0.0177002,0.0214172,
632,0.0280762,0.021521,
634,-0.0415039,0.0216125,
636,0.0311279,0.0215698,
638,0.0134277,0.0216248,
640,-0.0274658,0.021698,
642,0.045166,0.0217041,
644,-0.0170898,0.0216553,
646,0.00915527,0.0216125,
648,0.0195313,0.0217224,
650,-0.012207,0.0216614,
652,0.0494385,0.0217529,
654,-0.0128174,0.0217163,
656,-0.0158691,0.021759,
658,0.00610352,0.0217346,
660,-0.00793457,0.0216553,
662,0.0231934,0.0215881,
664,-0.00793457,0.0215271,
666,0.00671387,0.0214172,
668,-0.0109863,0.0214111,
670,0.00244141,0.0213623,
672,0.0244141,0.0214294,
674,-0.0311279,0.0214355,
676,0.043335,0.02146,
678,0.0146484,0.021521,
680,-0.0286865,0.0214783,
682,0.0262451,0.0214966,
684,-0.0457764,0.0215149,
686,0.0317383,0.0215332,
688,0.0305176,0.0217712,
690,-0.0238037,0.0216492,
692,0.0524902,0.0217468,
694,-0.00427246,0.0215149,
696,0.00854492,0.0215027,
698,-0.000610352,0.0214111,
700,-0.0158691,0.0213867,
702,0.0469971,0.0214966,
704,-0.00427246,0.0215149,
706,-0.0250244,0.0215881,
708,-0.00183105,0.0215759,
710,-0.0189209,0.0216309,
712,0.0256348,0.0216553,
714,-0.00732422,0.0215332,
716,0.0012207,0.0213318,
718,0.00305176,0.0213013,
720,-0.00366211,0.0212524,
722,0.0115967,0.0211731,
724,-0.0360107,0.0212463,
726,0.03479,0.0210571,
728,0.00427246,0.0210083,
730,-0.0219727,0.0209839,
732,0.0323486,0.0210632,
734,-0.0415039,0.0210693,
736,0.0262451,0.0210388,
738,0.0256348,0.0211914,
740,-0.0268555,0.0211853,
742,0.0512695,0.0211792,
744,-0.020752,0.0212036,
746,0.010376,0.0211304,
748,0.0152588,0.0211121,
750,-0.0231934,0.0211609,
752,0.0415039,0.021167,
754,0.00183105,0.0211365,
756,-0.00305176,0.0211182,
758,0.00671387,0.0210999,
760,-0.0109863,0.0211914,
762,0.0262451,0.020929,
764,-0.000610352,0.0208191,
766,0.00854492,0.0205383,
768,0.0152588,0.0206787,
770,-0.0012207,0.0205444,
772,0.012207,0.0203552,
774,-0.0256348,0.0201843,
776,0.0402832,0.0204224,
778,0.0299072,0.0204529,
780,-0.0311279,0.0201416,
782,0.0372314,0.0204224,
784,-0.0408936,0.0202209,
786,0.0402832,0.0203003,
788,0.0158691,0.0203125,
790,-0.0396729,0.0204224,
792,0.0494385,0.0205261,
794,-0.0311279,0.0205872,
796,-0.00854492,0.020575,
798,0.012207,0.0206299,
800,-0.0305176,0.0207092,
802,0.0360107,0.0206421,
804,0.00976563,0.0206909,
806,-0.0170898,0.0207336,
808,0.010376,0.0207947,
810,-0.00793457,0.0208313,
812,0.0292969,0.0209595,
814,-0.00244141,0.0209473,
816,0.0128174,0.0209656,
818,0.0134277,0.0210876,
820,0.00427246,0.0210693,
822,0.020752,0.0210327,
824,-0.0219727,0.0210205,
826,0.0372314,0.0209595,
828,0.0164795,0.0210876,
830,-0.0238037,0.0211487,
832,0.0280762,0.0211487,
834,-0.0415039,0.0211487,
836,0.0292969,0.0211304,
838,0.0189209,0.0211853,
840,-0.0469971,0.0213806,
842,0.055542,0.0214844,
844,-0.0201416,0.0215149,
846,0.00671387,0.0214905,
848,0.0134277,0.0214294,
850,-0.0378418,0.0216858,
852,0.045166,0.0216431,
854,0.00427246,0.0215576,
856,-0.00976563,0.0214966,
858,0.0158691,0.0215942,
860,-0.0146484,0.0216614,
862,0.0274658,0.0217041,
864,-0.0012207,0.021637,
866,0.00793457,0.0216492,
868,-0.000610352,0.0215454,
870,-0.00732422,0.0215942,
872,0.0109863,0.02146,
874,-0.0360107,0.0215088,
876,0.0262451,0.0213379,
878,0.00854492,0.0212769,
880,-0.0268555,0.0212585,
882,0.0378418,0.0213745,
884,-0.0341797,0.0212585,
886,0.0213623,0.0211548,
888,0.032959,0.0211792,
890,-0.0439453,0.0213806,
892,0.0549316,0.021405,
894,-0.0286865,0.0216492,
896,-0.0012207,0.0215759,
898,0.012207,0.0216919,
900,-0.0311279,0.0218445,
902,0.0457764,0.0218323,
904,-0.00610352,0.0218506,
906,-0.0109863,0.0217102,
908,0.0158691,0.0218506,
910,-0.0213623,0.021875,
912,0.0189209,0.0218079,
914,0.00488281,0.0217834,
916,0.00976563,0.0218689,
918,0.0164795,0.0220032,
920,-0.00610352,0.0220276,
922,0.0250244,0.0221619,
924,-0.0274658,0.0220764,
926,0.0384521,0.022113,
928,0.0231934,0.0223022,
930,-0.00244141,0.0221069,
932,0.0360107,0.0221436,
934,-0.0421143,0.0221497,
936,0.0360107,0.0222473,
938,0.0408936,0.0223999,
940,-0.0378418,0.0225098,
942,0.045166,0.0224487,
944,-0.0317383,0.0225586,
946,-0.000610352,0.0224609,
948,0.00732422,0.0223816,
950,-0.0402832,0.0225525,
952,0.045166,0.0225891,
954,-0.00427246,0.0226135,
956,-0.0262451,0.0228455,
958,0.0115967,0.0228943,
960,-0.0189209,0.0229736,
962,0.0274658,0.0229858,
964,-0.000610352,0.0229858,
966,-0.00366211,0.022937,
968,0.00732422,0.0228577,
970,-0.010376,0.0229492,
972,0.00854492,0.0229126,
974,-0.0292969,0.0229492,
976,0.0323486,0.0228699,
978,0.0183105,0.0227539,
980,-0.0183105,0.0226257,
982,0.0354004,0.0226074,
984,-0.032959,0.0225281,
986,0.0195313,0.0223206,
988,0.0292969,0.0224548,
990,-0.0286865,0.022345,
992,0.0646973,0.0224976,
994,-0.032959,0.0225159,
996,0.00427246,0.0224731,
998,0.0140381,0.0224915,
1000,-0.0189209,0.0223755,
1002,0.0469971,0.0224854,
1004,0.00793457,0.022467,
1006,-0.00976563,0.0223938,
1008,0.0134277,0.0224243,
1010,-0.0164795,0.0225098,
1012,0.0335693,0.0225525,
1014,0.00854492,0.0226135,
1016,0.00793457,0.0225647,
1018,0.00854492,0.0225159,
1020,-0.00610352,0.0225342,
1022,0.0109863,0.0224365,
1024,-0.0292969,0.0225098,
1026,0.0335693,0.0224731,
1028,0.0390625,0.022699,
1030,-0.00793457,0.0225403,
1032,0.0372314,0.0226318,
1034,-0.0378418,0.0225952,
1036,0.0146484,0.0224487,
1038,0.0390625,0.0226501,
1040,-0.0317383,0.0224976,
1042,0.043335,0.0223755,
1044,-0.0366211,0.0225403,
1046,-0.00915527,0.0225647,
1048,0.012207,0.0225525,
1050,-0.0341797,0.0225159,
1052,0.0543213,0.0226074,
1054,0.00732422,0.0226379,
1056,-0.00671387,0.0226074,
1058,0.012207,0.0225708,
1060,-0.0183105,0.0226074,
1062,0.0335693,0.0226685,
1064,0.00244141,0.0226807,
1066,-0.00610352,0.0226624,
1068,0.022583,0.0228821,
1070,-0.00366211,0.0228455,
1072,0.00488281,0.0227844,
1074,-0.022583,0.0226501,
1076,0.0341797,0.0227295,
1078,0.0195313,0.0228394,
1080,-0.0189209,0.02276,
1082,0.0366211,0.0227478,
1084,-0.0378418,0.0227844,
1086,0.0274658,0.0228455,
1088,0.0231934,0.0227478,
1090,-0.0372314,0.0226807,
1092,0.0549316,0.0226807,
1094,-0.020752,0.0226013,
1096,0.0012207,0.0226013,
1098,0.0164795,0.022644,
1100,-0.0341797,0.0226746,
1102,0.0494385,0.0227112,
1104,0.00427246,0.0226929,
1106,-0.0183105,0.0227661,
1108,0.0213623,0.022821,
1110,-0.0256348,0.0228638,
1112,0.0323486,0.022998,
1114,0.00793457,0.0230286,
1116,0.0012207,0.0229431,
1118,0.0201416,0.0229797,
1120,-0.00305176,0.0229492,
1122,0.00305176,0.0227295,
1124,-0.0238037,0.0226929,
1126,0.0372314,0.0226807,
1128,0.020752,0.0226562,
1130,-0.020752,0.0228394,
1132,0.0372314,0.0228516,
1134,-0.0311279,0.0227417,
1136,0.0280762,0.0226624,
1138,0.0268555,0.022522,
1140,-0.0201416,0.022345,
1142,0.0653076,0.0225464,
1144,-0.00244141,0.0222534,
1146,0.000610352,0.0222534,
1148,0.0109863,0.02229,
1150,-0.0317383,0.0222046,
1152,0.0549316,0.0223022,
1154,-0.00305176,0.02229,
1156,-0.0256348,0.0222839,
1158,-0.00183105,0.0221863,
1160,-0.022583,0.0222229,
1162,0.0250244,0.0221985,
1164,0.00244141,0.0222168,
1166,0.00549316,0.0222351,
1168,0.0146484,0.0223083,
1170,0.00183105,0.0222229,
1172,0.00976563,0.0222351,
1174,-0.0158691,0.0221008,
1176,0.0286865,0.0220642,
1178,0.0292969,0.0221741,
1180,-0.0158691,0.0221497,
1182,0.0170898,0.0219666,
1184,-0.0299072,0.021936,
1186,0.0299072,0.0220398,
1188,0.022583,0.0219727,
1190,-0.0317383,0.0220032,
1192,0.0604248,0.0219604,
1194,-0.0238037,0.0218689,
1196,0.00854492,0.0219116,
1198,0.0195313,0.0219666,
1200,-0.0366211,0.0221436,
1202,0.0482178,0.0221558,
1204,0,0.0220764,
1206,-0.0177002,0.0221558,
1208,0.0250244,0.0222717,
1210,-0.0360107,0.022467,
1212,0.0311279,0.0224426,
1214,0.00671387,0.0224243,
1216,0.00488281,0.0223938,
1218,0.0280762,0.0225891,
1220,0.00244141,0.0225525,
1222,0.0134277,0.0225769,
1224,-0.0231934,0.0225159,
1226,0.0286865,0.022467,
1228,0.0262451,0.0223389,
1230,-0.0213623,0.0224731,
1232,0.0305176,0.022406,
1234,-0.0378418,0.022406,
1236,0.012207,0.0223816,
1238,0.0250244,0.0222412,
1240,-0.0341797,0.0222656,
1242,0.0561523,0.0223938,
1244,-0.012207,0.0221497,
1246,-0.0128174,0.0221863,
1248,0.0256348,0.0223206,
1250,-0.0354004,0.0223328,
1252,0.045166,0.0222412,
1254,-0.00549316,0.0222229,
1256,-0.0170898,0.0223267,
1258,0.0201416,0.022406,
1260,-0.022583,0.0224487,
1262,0.0292969,0.022406,
1264,0.00549316,0.0224365,
1266,0.00488281,0.0224243,
1268,0.0256348,0.0224548,
1270,-0.00427246,0.0224609,
1272,0.010376,0.0225159,
1274,-0.0201416,0.0224915,
1276,0.0256348,0.022406,
1278,0.0164795,0.0223755,
1280,-0.022583,0.0224121,
1282,0.0201416,0.0222473,
1284,-0.0366211,0.0222351,
1286,0.0140381,0.0221008,
1288,0.0250244,0.0221191,
1290,-0.0341797,0.0220886,
1292,0.0567627,0.0221069,
1294,-0.0128174,0.0220276,
1296,0.00305176,0.0220459,
1298,0.0189209,0.0220703,
1300,-0.0390625,0.0221191,
1302,0.0604248,0.022229,
1304,0.00854492,0.0222717,
1306,-0.00976563,0.0221863,
1308,0.0189209,0.0221619,
1310,-0.0274658,0.0221802,
1312,0.0402832,0.0222595,
1314,0.0109863,0.02229,
1316,0,0.0222778,
1318,0.0231934,0.0223083,
1320,-0.0213623,0.0224915,
1322,0.00732422,0.0225342,
1324,-0.0201416,0.0224976,
1326,0.0189209,0.0223145,
1328,0.00793457,0.0221863,
1330,-0.020752,0.0221863,
1332,0.0195313,0.0220093,
1334,-0.0335693,0.0220337,
1336,0.0201416,0.0219543,
1338,0.0280762,0.0219666,
1340,-0.0396729,0.0221619,
1342,0.0506592,0.0220154,
1344,-0.0109863,0.0221008,
1346,-0.000610352,0.0221008,
1348,0.00610352,0.022052,
1350,-0.0396729,0.0221313,
1352,0.0439453,0.0220215,
1354,-0.00183105,0.0220093,
1356,-0.0152588,0.0219055,
1358,0.0244141,0.0221313,
1360,-0.0201416,0.0221069,
1362,0.0250244,0.0221069,
1364,0.010376,0.0221863,
1366,0.00183105,0.0221497,
1368,0.0323486,0.0223267,
1370,0.0012207,0.0223206,
1372,0.00732422,0.0222961,
1374,-0.0189209,0.0223267,
1376,0.012207,0.0221619,
1378,0.0231934,0.0221008,
1380,-0.0231934,0.0221741,
1382,0.0219727,0.0222229,
1384,-0.0390625,0.0223145,
1386,0.00915527,0.0221069,
1388,0.022583,0.0221069,
1390,-0.0305176,0.0220947,
1392,0.0592041,0.0220825,
1394,-0.0109863,0.0219543,
1396,0.00183105,0.0218872,
1398,0.0195313,0.0218872,
1400,-0.0305176,0.0218262,
1402,0.0579834,0.0219238,
1404,0.00244141,0.0219482,
1406,-0.0158691,0.0219299,
1408,0.0305176,0.0219849,
1410,-0.0268555,0.0218933,
1412,0.0286865,0.0218689,
1414,-0.0012207,0.021814,
1416,0.0152588,0.0219177,
1418,0.0170898,0.0218079,
1420,-0.00305176,0.021814,
1422,0.0164795,0.0218445,
1424,-0.00366211,0.0216492,
1426,0.0292969,0.0216553,
1428,0.0390625,0.0217834,
1430,-0.012207,0.0216919,
1432,0.0140381,0.0215271,
1434,-0.0213623,0.0213623,
1436,0.012207,0.0213623,
1438,0.0213623,0.0213257,
1440,-0.0439453,0.0214233,
1442,0.0531006,0.0213928,
1444,-0.010376,0.0213745,
1446,-0.00427246,0.0212891,
1448,0.0140381,0.0211731,
1450,-0.0354004,0.0211731,
1452,0.0482178,0.0212036,
1454,0.010376,0.0212524,
1456,-0.0177002,0.0212585,
1458,0.00915527,0.0211487,
1460,-0.0128174,0.021051,
1462,0.0140381,0.0208984,
1464,0.0115967,0.0209595,
1466,-0.000610352,0.0209167,
1468,0.0274658,0.0209351,
1470,-0.00366211,0.020929,
1472,0.00671387,0.0208923,
1474,-0.0177002,0.0208679,
1476,0.0115967,0.0207275,
1478,0.0317383,0.0208801,
1480,-0.0164795,0.0208191,
1482,0.0170898,0.0207886,
1484,-0.0274658,0.020697,
1486,0.0152588,0.0207092,
1488,0.0274658,0.0207336,
1490,-0.0378418,0.0207703,
1492,0.055542,0.0207581,
1494,-0.012207,0.020752,
1496,-0.00549316,0.0207764,
1498,0.0189209,0.0207764,
1500,-0.03479,0.0207336,
1502,0.0488281,0.0206177,
1504,0.00976563,0.0206299,
1506,-0.0164795,0.020697,
1508,0.0292969,0.0208008,
1510,-0.0274658,0.0208008,
1512,0.0244141,0.0206421,
1514,0.0109863,0.0206421,
1516,-0.012207,0.0207642,
1518,0.0286865,0.0208191,
1520,-0.0115967,0.0207214,
1522,-0.000610352,0.0206543,
1524,-0.0183105,0.020636,
1526,0.0109863,0.0205566,
1528,0.0311279,0.0207886,
1530,-0.022583,0.0208069,
1532,0.0292969,0.0209045,
1534,-0.0341797,0.0209106,
1536,0.00793457,0.0207886,
1538,0.0299072,0.0208069,
1540,-0.0341797,0.020752,
1542,0.0561523,0.0208069,
1544,-0.0140381,0.0208374,
1546,-0.00976563,0.020929,
1548,0.0140381,0.0210083,
1550,-0.0366211,0.0209778,
1552,0.0506592,0.0210449,
1554,0.000610352,0.0210327,
1556,-0.0177002,0.0210571,
1558,0.0292969,0.021106,
1560,-0.0238037,0.0211426,
1562,0.0268555,0.0211609,
1564,0.00244141,0.0210815,
1566,-0.0012207,0.0210754,
1568,0.0299072,0.021051,
1570,-0.000610352,0.0210449,
1572,0.00366211,0.0210083,
1574,-0.0152588,0.0209717,
1576,0.0219727,0.0210693,
1578,0.0323486,0.0211609,
1580,-0.0195313,0.0211243,
1582,0.0262451,0.021167,
1584,-0.0323486,0.0210999,
1586,0.00854492,0.0210938,
1588,0.0292969,0.0211609,
1590,-0.0396729,0.0212524,
1592,0.0531006,0.0211914,
1594,-0.0134277,0.0212158,
1596,-0.0189209,0.0213867,
1598,0.0238037,0.0214294,
1600,-0.0341797,0.0214661,
1602,0.0439453,0.0213257,
1604,0.012207,0.0214233,
1606,-0.0189209,0.0214539,
1608,0.0335693,0.0214844,
1610,-0.0262451,0.0214783,
1612,0.0244141,0.0214355,
1614,0.00854492,0.0215088,
1616,-0.0109863,0.0214661,
1618,0.0366211,0.0216614,
1620,-0.010376,0.0217346,
1622,0,0.0215698,
1624,-0.00854492,0.0216187,
1626,0.0164795,0.0214905,
1628,0.0177002,0.0212769,
1630,-0.0170898,0.0213257,
1632,0.032959,0.0215149,
1634,-0.0262451,0.0215637,
1636,0.0128174,0.0215698,
1638,0.022583,0.021582,
1640,-0.0396729,0.0215393,
1642,0.0592041,0.0216003,
1644,-0.0140381,0.021637,
1646,-0.00671387,0.0216614,
1648,0.0177002,0.021698,
1650,-0.0384521,0.0217285,
1652,0.0476074,0.0217224,
1654,0.00610352,0.0216797,
1656,-0.0177002,0.0216797,
1658,0.0317383,0.0219055,
1660,-0.0292969,0.0220703,
1662,0.0274658,0.0222046,
1664,0.00244141,0.022113,
1666,0.000610352,0.022113,
1668,0.0292969,0.0221313,
1670,-0.00488281,0.0221436,
1672,0.00732422,0.0221497,
1674,-0.00976563,0.0220703,
1676,0.00976563,0.022052,
1678,0.0360107,0.0220947,
1680,-0.0201416,0.0221313,
1682,0.0140381,0.0221008,
1684,-0.0128174,0.0219543,
1686,0.012207,0.0219238,
1688,0.022583,0.021875,
1690,-0.0469971,0.0219666,
1692,0.0628662,0.0220398,
1694,-0.00305176,0.0219482,
1696,-0.00793457,0.0219727,
1698,0.0262451,0.0220459,
1700,-0.0469971,0.022168,
1702,0.055542,0.0222351,
1704,0.00915527,0.022229,
1706,-0.0170898,0.0222351,
1708,0.0286865,0.022229,
1710,-0.0280762,0.0222351,
1712,0.022583,0.0222168,
1714,0.00854492,0.0221924,
1716,-0.00854492,0.0221558,
1718,0.0341797,0.0222107,
1720,-0.00671387,0.0221619,
1722,0.0134277,0.02229,
1724,-0.0231934,0.0223389,
1726,0.00732422,0.0223022,
1728,0.03479,0.0223389,
1730,-0.0268555,0.0223816,
1732,0.0244141,0.0223328,
1734,-0.0274658,0.0222656,
1736,0.00976563,0.0222839,
1738,0.0213623,0.0221985,
1740,-0.0396729,0.0222534,
1742,0.0616455,0.0223083,
1744,-0.00915527,0.0222595,
1746,-0.00915527,0.0222534,
1748,0.0280762,0.0223938,
1750,-0.0384521,0.0224121,
1752,0.043335,0.0223389,
1754,0.0128174,0.0224609,
1756,-0.0274658,0.0225586,
1758,0.0335693,0.0226013,
1760,-0.0238037,0.0226013,
1762,0.0152588,0.0224854,
1764,0.00671387,0.0225281,
1766,-0.00854492,0.0226013,
1768,0.0372314,0.0226746,
1770,-0.00183105,0.0226868,
1772,-0.000610352,0.0226562,
1774,-0.0183105,0.0226868,
1776,0.0183105,0.0226501,
1778,0.0274658,0.0226013,
1780,-0.020752,0.0226135,
1782,0.0177002,0.0225281,
1784,-0.00793457,0.0222839,
1786,0.00976563,0.0222961,
1788,0.0335693,0.0223389,
1790,-0.0286865,0.022229,
1792,0.0634766,0.0223328,
1794,-0.00610352,0.0222595,
1796,-0.00671387,0.0221375,
1798,0.0177002,0.0220764,
1800,-0.0372314,0.0221069,
1802,0.0457764,0.0221252,
1804,0.00549316,0.0220581,
1806,-0.0335693,0.0222046,
1808,0.0274658,0.0221436,
1810,-0.0231934,0.022113,
1812,0.0170898,0.0220398,
1814,0.00854492,0.0220398,
1816,-0.00854492,0.0220154,
1818,0.032959,0.0219788,
1820,-0.010376,0.0219788,
1822,0,0.0219788,
1824,-0.0109863,0.0220032,
1826,0.00732422,0.0219116,
1828,0.0286865,0.0220215,
1830,-0.0170898,0.0220215,
1832,0.0268555,0.0219604,
1834,-0.0219727,0.0219177,
1836,0.0158691,0.0219482,
1838,0.0274658,0.0219971,
1840,-0.0280762,0.0218811,
1842,0.0579834,0.0218689,
1844,-0.00732422,0.0218018,
1846,-0.0158691,0.0218933,
1848,0.0256348,0.0219727,
1850,-0.0427246,0.0220154,
1852,0.0488281,0.0220276,
1854,0.00610352,0.0220276,
1856,-0.0292969,0.0221436,
1858,0.043335,0.0222595,
1860,-0.0341797,0.0223083,
1862,0.0170898,0.0222046,
1864,0.0146484,0.0223267,
1866,-0.00183105,0.0223389,
1868,0.0323486,0.0223694,
1870,-0.00854492,0.022406,
1872,-0.000610352,0.0223389,
1874,-0.0164795,0.022406,
1876,0.00854492,0.0223938,
1878,0.0238037,0.0222717,
1880,-0.0195313,0.0222656,
1882,0.0256348,0.0223816,
1884,-0.022583,0.0224792,
1886,0.00610352,0.0224182,
1888,0.0311279,0.0225037,
1890,-0.0372314,0.022406,
1892,0.0567627,0.022345,
1894,-0.000610352,0.0223206,
1896,-0.0128174,0.0223694,
1898,0.0317383,0.0224243,
1900,-0.0469971,0.0224243,
1902,0.0469971,0.0223389,
1904,0.0164795,0.0224121,
1906,-0.0238037,0.0224792,
1908,0.0354004,0.0225464,
1910,-0.0305176,0.0225708,
1912,0.0164795,0.0225098,
1914,0.0195313,0.0226196,
1916,-0.00427246,0.0225769,
1918,0.0354004,0.0225891,
1920,-0.0115967,0.0226379,
1922,0.00854492,0.0225891,
1924,-0.0189209,0.0225464,
1926,0.0134277,0.0226074,
1928,0.0244141,0.0225037,
1930,-0.0128174,0.0223633,
1932,0.0323486,0.0224426,
1934,-0.022583,0.0223938,
1936,0.00183105,0.0223145,
1938,0.0335693,0.0224365,
1940,-0.0231934,0.0222717,
1942,0.0543213,0.0221985,
1944,-0.00488281,0.0221558,
1946,-0.0201416,0.0222656,
1948,0.0274658,0.0222595,
1950,-0.0427246,0.0223022,
1952,0.0396729,0.0222656,
1954,0.0115967,0.0222534,
1956,-0.0238037,0.0222168,
1958,0.0231934,0.022113,
1960,-0.0305176,0.0221802,
1962,0.020752,0.0222351,
1964,0.0109863,0.0222778,
1966,-0.00976563,0.02229,
1968,0.0354004,0.0222717,
1970,-0.00366211,0.02229,
1972,-0.00610352,0.022345,
1974,-0.00427246,0.0222046,
1976,0.00549316,0.0220764,
1978,0.0201416,0.0220032,
1980,-0.00793457,0.021875,
1982,0.0238037,0.021936,
1984,-0.0201416,0.0220581,
1986,0.00854492,0.0220459,
1988,0.0280762,0.021991,
1990,-0.0341797,0.0220459,
1992,0.055542,0.0219666,
1994,-0.0183105,0.0220886,
1996,-0.00671387,0.0220886,
1998,0.022583,0.0221375,
2000,-0.0402832,0.022168,
2002,0.0396729,0.0221069,
2004,0.0158691,0.0222107,
2006,-0.0164795,0.0220398,
2008,0.0384521,0.0221497,
2010,-0.0262451,0.0221802,
2012,0.0213623,0.0222229,
2014,0.0189209,0.0223267,
2016,-0.0128174,0.0223694,
2018,0.032959,0.0223694,
2020,-0.00488281,0.0223145,
2022,-0.0128174,0.0224426,
2024,-0.00427246,0.0223755,
2026,0.00732422,0.0223755,
2028,0.0195313,0.0222839,
2030,-0.00244141,0.0221375,
2032,0.0378418,0.0222473,
2034,-0.0213623,0.0222412,
2036,0.0140381,0.0222229,
2038,0.032959,0.0222778,
2040,-0.0354004,0.0223511,
2042,0.0561523,0.0223328,
2044,-0.00549316,0.0223145,
2046,-0.00610352,0.0222168,
2048,0.0219727,0.0221802,
2050,-0.0463867,0.0222168,
2052,0.0457764,0.0221863,
2054,0.00488281,0.0221741,
2056,-0.022583,0.0221069,
2058,0.0323486,0.0219971,
2060,-0.0262451,0.0219177,
2062,0.0274658,0.0220215,
2064,0.0115967,0.021991,
2066,-0.0140381,0.022113,
2068,0.0384521,0.0221741,
2070,-0.00488281,0.0221375,
2072,0.00976563,0.022229,
2074,0.00244141,0.0220886,
2076,-0.010376,0.0221069,
2078,0.0268555,0.0221375,
2080,-0.0012207,0.0219543,
2082,0.022583,0.0219238,
2084,-0.0152588,0.0218506,
2086,0.00671387,0.0218567,
2088,0.0268555,0.021814,
2090,-0.0402832,0.0218445,
2092,0.0518799,0.0217957,
2094,0.00488281,0.0218384,
2096,-0.0183105,0.0218933,
2098,0.0219727,0.0217957,
2100,-0.0427246,0.0217529,
2102,0.043335,0.0217163,
2104,0.00671387,0.0216187,
2106,-0.0268555,0.0216492,
2108,0.0445557,0.0217407,
2110,-0.0256348,0.0216919,
2112,0.0213623,0.0217407,
2114,0.00305176,0.0215759,
2116,-0.010376,0.021637,
2118,0.0384521,0.0216675,
2120,-0.00549316,0.0216064,
2122,-0.012207,0.0216431,
2124,-0.00610352,0.0215149,
2126,0.000610352,0.0213867,
2128,0.0292969,0.0214355,
2130,-0.0134277,0.0214417,
2132,0.0244141,0.0213623,
2134,-0.00488281,0.0211853,
2136,0.010376,0.0212708,
2138,0.0189209,0.0211243,
2140,-0.0305176,0.0211975,
2142,0.0537109,0.0211914,
2144,-0.00854492,0.021228,
2146,-0.020752,0.0212341,
2148,0.020752,0.021167,
2150,-0.0506592,0.0212463,
2152,0.032959,0.0211792,
2154,0.00610352,0.0211243,
2156,-0.0268555,0.0211548,
2158,0.0384521,0.0213074,
2160,-0.0250244,0.0212524,
2162,0.0201416,0.0212463,
2164,0.00915527,0.021228,
2166,-0.00915527,0.0212219,
2168,0.0427246,0.0212952,
2170,-0.00183105,0.0212769,
2172,-0.00671387,0.021283,
2174,-0.00732422,0.0213135,
2176,0.0012207,0.0212708,
2178,0.0305176,0.0213745,
2180,-0.0109863,0.021405,
2182,0.0250244,0.0214172,
2184,-0.0183105,0.0213989,
2186,0.00183105,0.0213318,
2188,0.0256348,0.0213074,
2190,-0.0183105,0.0211487,
2192,0.0512695,0.021106,
2194,-0.00183105,0.0209412,
2196,-0.0140381,0.0210144,
2198,0.0305176,0.0210938,
2200,-0.0396729,0.0210876,
2202,0.0311279,0.0210022,
2204,0.00427246,0.0208862,
2206,-0.0268555,0.02099,
2208,0.0402832,0.0210083,
2210,-0.0292969,0.0210388,
2212,0.0177002,0.0210022,
2214,0.00305176,0.0208435,
2216,-0.00854492,0.0208008,
2218,0.0408936,0.0208801,
2220,-0.00915527,0.0209229,
2222,-0.00976563,0.0208923,
2224,-0.00366211,0.0208862,
2226,-0.0140381,0.0209534,
2228,0.0366211,0.0211243,
2230,-0.00854492,0.0211853,
2232,0.0158691,0.0209656,
2234,-0.00915527,0.0208435,
2236,0.00976563,0.0208008,
2238,0.0402832,0.020874,
2240,-0.032959,0.0208496,
2242,0.055542,0.0208435,
2244,-0.000610352,0.0207947,
2246,-0.0164795,0.0208984,
2248,0.032959,0.0210083,
2250,-0.0524902,0.0210693,
2252,0.0317383,0.020929,
2254,0.00610352,0.0209412,
2256,-0.0213623,0.020929,
2258,0.0396729,0.0210022,
2260,-0.0286865,0.0210266,
2262,0.020752,0.0209595,
2264,0.0128174,0.0209717,
2266,-0.00671387,0.0208984,
2268,0.0445557,0.0209595,
2270,0.00732422,0.0209839,
2272,-0.00793457,0.0209656,
2274,-0.00244141,0.0209656,
2276,-0.0238037,0.0210999,
2278,0.032959,0.0211609,
2280,-0.00793457,0.021228,
2282,0.012207,0.0211243,
2284,-0.0250244,0.0212219,
2286,-0.00183105,0.0211731,
2288,0.0250244,0.0211548,
2290,-0.0292969,0.0210449,
2292,0.0439453,0.0209656,
2294,0.00671387,0.0209839,
2296,-0.012207,0.0209229,
2298,0.0268555,0.0209717,
2300,-0.0415039,0.0209595,
2302,0.0457764,0.0209839,
2304,0.00915527,0.0210083,
2306,-0.0274658,0.0210144,
2308,0.0531006,0.0210999,
2310,-0.020752,0.021051,
2312,0.0152588,0.02099,
2314,0.00915527,0.021051,
2316,-0.0195313,0.0211426,
2318,0.0445557,0.0212036,
2320,-0.00427246,0.0211914,
2322,-0.00915527,0.0211609,
2324,-0.00244141,0.0211243,
2326,-0.00488281,0.021167,
2328,0.0311279,0.0211853,
2330,-0.00549316,0.021106,
2332,0.0128174,0.02099,
2334,-0.00732422,0.0210144,
2336,-0.000610352,0.0209167,
2338,0.0256348,0.0209839,
2340,-0.0262451,0.0209412,
2342,0.0524902,0.020929,
2344,0.00854492,0.020929,
2346,-0.0262451,0.0209839,
2348,0.0305176,0.0210815,
2350,-0.0408936,0.0209839,
2352,0.0421143,0.0210754,
2354,0.0219727,0.0212341,
2356,-0.0274658,0.0212402,
2358,0.0512695,0.0213684,
2360,-0.0384521,0.0215027,
2362,0.0189209,0.0214905,
2364,0.0219727,0.0216187,
2366,-0.022583,0.0217529,
2368,0.0372314,0.021698,
2370,-0.0109863,0.0217896,
2372,-0.0164795,0.0218872,
2374,0.00244141,0.0218384,
2376,-0.00488281,0.021875,
2378,0.045166,0.0220215,
2380,-0.0128174,0.0220398,
2382,0.0195313,0.0219849,
2384,-0.00549316,0.0218567,
2386,-0.00183105,0.0218567,
2388,0.032959,0.0219299,
2390,-0.0299072,0.0220459,
2392,0.0476074,0.0220093,
2394,-0.000610352,0.0219971,
2396,-0.0170898,0.0220276,
2398,0.0341797,0.0220642,
2400,-0.0268555,0.021936,
2402,0.0317383,0.0219421,
2404,-0.00549316,0.0219543,
2406,-0.0170898,0.0218567,
2408,0.0421143,0.021875,
2410,-0.0335693,0.0219177,
2412,-0.00305176,0.0217712,
2414,-0.0012207,0.0217529,
2416,-0.0152588,0.0218201,
2418,0.032959,0.0217407,
2420,-0.0109863,0.021759,
2422,-0.00366211,0.021698,
2424,0.00549316,0.0217163,
2426,-0.0115967,0.0216919,
2428,0.0299072,0.0216248,
2430,-0.00854492,0.0216248,
2432,0.0170898,0.021637,
2434,-0.00976563,0.0216431,
2436,0.00183105,0.0215637,
2438,0.0195313,0.0213562,
2440,-0.0286865,0.0213135,
2442,0.0427246,0.0211853,
2444,0.00854492,0.0212646,
2446,-0.0201416,0.0213013,
2448,0.03479,0.0213196,
2450,-0.0396729,0.0211914,
2452,0.0378418,0.0212524,
2454,0.0189209,0.0213806,
2456,-0.0177002,0.021344,
2458,0.0482178,0.0214294,
2460,-0.0256348,0.0213989,
2462,0.0115967,0.0213074,
2464,0.012207,0.0213013,
2466,-0.0128174,0.0213623,
2468,0.0439453,0.0213562,
2470,-0.00549316,0.0213379,
2472,-0.00549316,0.0213135,
2474,-0.0274658,0.0215637,
2476,0.00915527,0.0214172,
2478,0.03479,0.0214355,
2480,-0.0177002,0.0215332,
2482,0.0152588,0.0215637,
2484,-0.0158691,0.0214722,
2486,-0.00366211,0.0214905,
2488,0.0323486,0.0215637,
2490,-0.0274658,0.0215454,
2492,0.0476074,0.021582,
2494,0.00366211,0.0215515,
2496,-0.0152588,0.021582,
2498,0.0244141,0.0215576,
2500,-0.03479,0.0214905,
2502,0.0421143,0.0214539,
2504,0.0177002,0.0215393,
2506,-0.0262451,0.0215271,
2508,0.0439453,0.0214355,
2510,-0.0244141,0.0214722,
2512,0.0128174,0.0214478,
2514,0.0109863,0.0214661,
2516,-0.0183105,0.0214539,
2518,0.0366211,0.0213745,
2520,-0.00183105,0.0213501,
2522,-0.00305176,0.0212891,
2524,0.00793457,0.021344,
2526,-0.00366211,0.0213318,
2528,0.0317383,0.0213379,
2530,-0.00915527,0.0213745,
2532,0.020752,0.0214539,
2534,-0.000610352,0.0213867,
2536,-0.00427246,0.0214233,
2538,0.0292969,0.02146,
2540,-0.0317383,0.0215149,
2542,0.0512695,0.0215027,
2544,0.010376,0.021521,
2546,-0.0244141,0.0215027,
2548,0.0366211,0.0215637,
2550,-0.0366211,0.021521,
2552,0.0323486,0.0214233,
2554,0.0170898,0.0213745,
2556,-0.0311279,0.0214111,
2558,0.0512695,0.0214111,
2560,-0.0317383,0.021344,
2562,0.0164795,0.0213196,
2564,0.00915527,0.0211914,
2566,-0.0183105,0.0211487,
2568,0.043335,0.0212097,
2570,-0.00183105,0.0211182,
2572,-0.00732422,0.0210266,
2574,0.0146484,0.0211487,
2576,-0.0195313,0.0212952,
2578,0.0311279,0.0211548,
2580,-0.00244141,0.021051,
2582,0.0238037,0.0210938,
2584,0,0.0210388,
2586,0,0.0210205,
2588,0.022583,0.0209167,
2590,-0.0366211,0.0209839,
2592,0.0463867,0.0209717,
2594,0.00915527,0.0210571,
2596,-0.0170898,0.0210571,
2598,0.0341797,0.0210571,
2600,-0.0579834,0.0213684,
2602,0.0335693,0.0213867,
2604,0.022583,0.0215576,
2606,-0.0335693,0.0217224,
2608,0.0463867,0.0217651,
2610,-0.0305176,0.0217346,
2612,0.00610352,0.0217651,
2614,0.0109863,0.0218628,
2616,-0.0134277,0.0218445,
2618,0.0457764,0.0219727,
2620,-0.00671387,0.0219299,
2622,0.0012207,0.0219055,
2624,-0.00366211,0.0218872,
2626,0.00610352,0.0218323,
2628,0.0262451,0.0217957,
2630,-0.0177002,0.0218872,
2632,0.0219727,0.021936,
2634,-0.00488281,0.0218872,
2636,-0.00366211,0.0219055,
2638,0.0219727,0.0219299,
2640,-0.0292969,0.021936,
2642,0.0537109,0.0220459,
2644,0.012207,0.0220825,
2646,-0.0238037,0.0221191,
2648,0.0335693,0.0221069,
2650,-0.0482178,0.0221924,
2652,0.0408936,0.0222229,
2654,0.0189209,0.0222229,
2656,-0.0299072,0.022345,
2658,0.0384521,0.0222473,
2660,-0.0286865,0.0222778,
2662,0.0146484,0.0223083,
2664,0.0128174,0.0223145,
2666,-0.00854492,0.0222717,
2668,0.0402832,0.0222351,
2670,-0.0128174,0.0223083,
2672,-0.00488281,0.0223022,
2674,0.00549316,0.0220825,
2676,-0.00549316,0.0220459,
2678,0.020752,0.0219055,
2680,-0.0146484,0.021875,
2682,0.0158691,0.0218811,
2684,0.00183105,0.0217407,
2686,0,0.0217041,
2688,0.020752,0.0215881,
2690,-0.0384521,0.021698,
2692,0.0469971,0.0216919,
2694,0.0134277,0.0217896,
2696,-0.0213623,0.0218506,
2698,0.0305176,0.0219116,
2700,-0.0494385,0.0220581,
2702,0.0396729,0.0220337,
2704,0.0189209,0.0220459,
2706,-0.0311279,0.0220947,
2708,0.0463867,0.0221191,
2710,-0.0305176,0.0221802,
2712,0.00976563,0.0221497,
2714,0.0170898,0.0222107,
2716,-0.0134277,0.0221619,
2718,0.0384521,0.0221802,
2720,0.00305176,0.0221924,
2722,-0.0109863,0.0222717,
2724,0.00732422,0.0222656,
2726,-0.0109863,0.0223389,
2728,0.0231934,0.0222534,
2730,-0.00854492,0.0222473,
2732,0.0219727,0.0222595,
2734,-0.00549316,0.0223083,
2736,0.00183105,0.0222839,
2738,0.03479,0.0223389,
2740,-0.0366211,0.0223877,
2742,0.0390625,0.0222656,
2744,0.0183105,0.022345,
2746,-0.0177002,0.0222778,
2748,0.032959,0.0222412,
2750,-0.0500488,0.0223755,
2752,0.0372314,0.0224243,
2754,0.0177002,0.0224304,
2756,-0.0292969,0.0224121,
2758,0.0457764,0.0223572,
2760,-0.0256348,0.0222961,
2762,0.00793457,0.0222107,
2764,0.0189209,0.0223083,
2766,-0.0170898,0.0222961,
2768,0.0476074,0.0223389,
2770,-0.000610352,0.0223267,
2772,-0.012207,0.0223755,
2774,0.0158691,0.0223877,
2776,-0.0109863,0.0223022,
2778,0.0238037,0.022229,
2780,-0.00244141,0.022229,
2782,0.0134277,0.0221252,
2784,-0.00610352,0.0221863,
2786,-0.00244141,0.0222107,
2788,0.0238037,0.0222229,
2790,-0.0360107,0.0222168,
2792,0.0341797,0.0220947,
2794,0.0140381,0.0221436,
2796,-0.0213623,0.0221863,
2798,0.0372314,0.0222168,
2800,-0.0543213,0.0221802,
2802,0.0390625,0.0222351,
2804,0.0189209,0.0221985,
2806,-0.0274658,0.0221375,
2808,0.0482178,0.0221558,
2810,-0.0286865,0.0221375,
2812,0.00793457,0.0221558,
2814,0.010376,0.0221497,
2816,-0.0177002,0.0221924,
2818,0.0482178,0.0222168,
2820,-0.00305176,0.0221802,
2822,-0.010376,0.0222717,
2824,0.00732422,0.0223083,
2826,-0.0109863,0.0223572,
2828,0.032959,0.0224243,
2830,-0.000610352,0.0222534,
2832,0.00732422,0.0221069,
2834,0.00732422,0.0221313,
2836,-0.00732422,0.022168,
2838,0.0238037,0.0221863,
2840,-0.0305176,0.0221985,
2842,0.0354004,0.0220154,
2844,0.00915527,0.0219849,
2846,-0.0152588,0.0218994,
2848,0.0299072,0.0218628,
2850,-0.0445557,0.0218262,
2852,0.0341797,0.021759,
2854,0.0299072,0.0218689,
2856,-0.0238037,0.0218079,
2858,0.0549316,0.0219727,
2860,-0.0250244,0.021936,
2862,0.00915527,0.0218811,
2864,0.020752,0.0219604,
2866,-0.022583,0.0221008,
2868,0.0396729,0.0220947,
2870,0.0012207,0.0219788,
2872,-0.0219727,0.0221497,
2874,0.00732422,0.022168,
2876,-0.00915527,0.0222046,
2878,0.0286865,0.0222839,
2880,-0.000610352,0.0221436,
2882,0.0195313,0.0221802,
2884,-0.000610352,0.022168,
2886,0.000610352,0.0221741,
2888,0.0140381,0.0221069,
2890,-0.0238037,0.0219604,
2892,0.03479,0.0218384,
2894,0.00488281,0.0217529,
2896,-0.022583,0.0217651,
2898,0.0323486,0.0217834,
2900,-0.043335,0.0217224,
2902,0.0341797,0.0216675,
2904,0.0238037,0.0217163,
2906,-0.0268555,0.0216736,
2908,0.0549316,0.021759,
2910,-0.0238037,0.0216919,
2912,0.0134277,0.0217285,
2914,0.020752,0.0217651,
2916,-0.0250244,0.0218811,
2918,0.045166,0.0219482,
2920,0.00183105,0.021936,
2922,-0.00915527,0.0219177,
2924,0.00671387,0.0219116,
2926,-0.0152588,0.0219543,
2928,0.0311279,0.0220337,
2930,-0.00427246,0.021991,
2932,0.0140381,0.0219116,
2934,0.00610352,0.0219177,
2936,-0.00183105,0.0219177,
2938,0.0262451,0.0218323,
2940,-0.03479,0.021814,
2942,0.0323486,0.0217468,
2944,0.0195313,0.021759,
2946,-0.0109863,0.0216919,
2948,0.0292969,0.0216553,
2950,-0.0421143,0.0215759,
2952,0.0262451,0.0214661,
2954,0.0213623,0.0215027,
2956,-0.0323486,0.0215332,
2958,0.0469971,0.0215454,
2960,-0.022583,0.0215149,
2962,0.00793457,0.0215149,
2964,0.00488281,0.0213745,
2966,-0.0280762,0.0214844,
2968,0.0402832,0.0214111,
2970,0.00183105,0.0214233,
2972,-0.0183105,0.0214844,
2974,0.0115967,0.0214417,
2976,-0.00793457,0.0214111,
2978,0.0286865,0.02146,
2980,0.00732422,0.0215088,
2982,0.0152588,0.0215271,
2984,0.00366211,0.0215027,
2986,-0.000610352,0.0214844,
2988,0.0231934,0.0214783,
2990,-0.0299072,0.0214172,
2992,0.0384521,0.02146,
2994,0.00610352,0.0213806,
2996,-0.0195313,0.0213623,
2998,0.0299072,0.0212891,
3000,-0.0408936,0.0211548,
3002,0.0390625,0.0211548,
3004,0.0158691,0.0211243,
3006,-0.0305176,0.0211548,
3008,0.0610352,0.021283,
3010,-0.0256348,0.0212524,
3012,0.00732422,0.0212463,
3014,0.0146484,0.0212891,
3016,-0.0183105,0.0212952,
3018,0.0482178,0.0212952,
3020,0.00488281,0.0213135,
3022,-0.0134277,0.021344,
3024,0.012207,0.0213928,
3026,-0.0140381,0.0214233,
3028,0.0299072,0.0213928,
3030,0.00854492,0.0214722,
3032,0.00976563,0.0214966,
3034,0.00183105,0.0214417,
3036,-0.00305176,0.0213989,
3038,0.0305176,0.0214661,
3040,-0.0299072,0.02146,
3042,0.0341797,0.0214478,
3044,0.0231934,0.0215881,
3046,-0.0195313,0.0216309,
3048,0.0256348,0.0215881,
3050,-0.0366211,0.0215088,
3052,0.0231934,0.0213989,
3054,0.0244141,0.021344,
3056,-0.0286865,0.0213928,
3058,0.0518799,0.0213623,
3060,-0.0219727,0.0213318,
3062,0.0115967,0.0213562,
3064,0.010376,0.0212524,
3066,-0.0183105,0.0212097,
3068,0.065918,0.0214722,
3070,-0.0012207,0.0214722,
3072,-0.0152588,0.021405,
3074,0.0195313,0.0215271,
3076,-0.0231934,0.0216675,
3078,0.0335693,0.0217163,
3080,0.000610352,0.0217163,
3082,0.00305176,0.0215515,
3084,0.00488281,0.0215942,
3086,-0.00732422,0.0216614,
3088,0.0170898,0.0216919,
3090,-0.0231934,0.0216858,
3092,0.0384521,0.0217224,
3094,0.0158691,0.0218323,
3096,-0.010376,0.0217102,
3098,0.0262451,0.0216492,
3100,-0.0408936,0.0216248,
3102,0.0408936,0.0216919,
3104,0.012207,0.0215759,
3106,-0.0177002,0.0214844,
3108,0.0378418,0.0213135,
3110,-0.022583,0.0213013,
3112,0.0146484,0.0213135,
3114,0.0158691,0.0212646,
3116,-0.0354004,0.0213684,
3118,0.0439453,0.0213562,
3120,-0.00183105,0.0213562,
3122,-0.0140381,0.021405,
3124,0.00488281,0.0213867,
3126,-0.0213623,0.0214478,
3128,0.0286865,0.0214233,
3130,-0.000610352,0.0213867,
3132,0.012207,0.0213684,
3134,0.0146484,0.0214539,
3136,-0.00427246,0.0214783,
3138,0.0109863,0.0213257,
3140,-0.0213623,0.0211914,
3142,0.0408936,0.0212769,
3144,0.0183105,0.0212646,
3146,-0.0268555,0.0214233,
3148,0.0286865,0.0214172,
3150,-0.0378418,0.0213745,
3152,0.0262451,0.0213745,
3154,0.0262451,0.0214233,
3156,-0.0299072,0.0213989,
3158,0.0543213,0.0214722,
3160,-0.0164795,0.0214111,
3162,0.0158691,0.0214905,
3164,0.0177002,0.0216187,
3166,-0.0280762,0.0216187,
3168,0.0482178,0.021698,
3170,0.00732422,0.0217529,
3172,-0.0195313,0.0217651,
3174,0.0213623,0.0218628,
3176,-0.0231934,0.0220154,
3178,0.0231934,0.0219604,
3180,0.00488281,0.021936,
3182,0.00732422,0.0218567,
3184,0.012207,0.0219421,
3186,-0.0158691,0.0220947,
3188,0.0213623,0.0220764,
3190,-0.0213623,0.021991,
3192,0.0286865,0.0218933,
3194,0.0238037,0.0220703,
3196,-0.0152588,0.0220276,
3198,0.0280762,0.0220093,
3200,-0.0402832,0.0220032,
3202,0.0292969,0.0219055,
3204,0.0299072,0.0220459,
3206,-0.0268555,0.0220093,
3208,0.0537109,0.021936,
3210,-0.0219727,0.0218994,
3212,0.00671387,0.0218933,
3214,0.00427246,0.0217896,
3216,-0.0219727,0.0218262,
3218,0.0512695,0.0218567,
3220,0.00244141,0.0218323,
3222,-0.0140381,0.0218384,
3224,0.0158691,0.021875,
3226,-0.0158691,0.0218933,
3228,0.0250244,0.0218445,
3230,0.00976563,0.0218567,
3232,0.0134277,0.0218933,
3234,0.00427246,0.0219177,
3236,-0.0128174,0.0220154,
3238,0.0146484,0.0218567,
3240,-0.0201416,0.021759,
3242,0.0323486,0.0217407,
3244,0.0238037,0.0217468,
3246,-0.0170898,0.0217224,
3248,0.0274658,0.0217407,
3250,-0.0323486,0.021698,
3252,0.0421143,0.0218872,
3254,0.0299072,0.0219421,
3256,-0.045166,0.0221069,
3258,0.0598145,0.0221863,
3260,-0.0170898,0.0221375,
3262,-0.00183105,0.0220398,
3264,0.00976563,0.0220337,
3266,-0.0189209,0.0220398,
3268,0.0372314,0.0217529,
3270,-0.000610352,0.0217468,
3272,-0.00183105,0.0216125,
3274,0.0164795,0.021582,
3276,-0.0146484,0.0214966,
3278,0.0305176,0.0214661,
3280,0.012207,0.021582,
3282,0.00610352,0.0216125,
3284,0.010376,0.0216675,
3286,-0.00793457,0.0216736,
3288,0.020752,0.0217102,
3290,-0.0311279,0.0217896,
3292,0.0286865,0.0216919,
3294,0.0128174,0.0216614,
3296,-0.0292969,0.0218506,
3298,0.0292969,0.0218811,
3300,-0.045166,0.0219238,
3302,0.0195313,0.0217102,
3304,0.0238037,0.0218262,
3306,-0.0170898,0.0218201,
3308,0.0622559,0.0220642,
3310,-0.0195313,0.0220337,
3312,0.0115967,0.0220032,
3314,0.00671387,0.0219116,
3316,-0.0213623,0.0217712,
3318,0.0476074,0.0218079,
3320,-0.00549316,0.0218445,
3322,-0.0189209,0.0218933,
3324,0.00915527,0.021936,
3326,-0.0146484,0.0218689,
3328,0.0146484,0.0217285,
3330,-0.00183105,0.0217407,
3332,0.0134277,0.0217529,
3334,0.0128174,0.0217346,
3336,-0.00183105,0.0217102,
3338,0.0238037,0.0218384,
3340,-0.0244141,0.0218689,
3342,0.0335693,0.0217957,
3344,0.0244141,0.0218567,
3346,-0.0292969,0.0218811,
3348,0.0415039,0.0220093,
3350,-0.0262451,0.0218933,
3352,0.0170898,0.0218018,
3354,0.020752,0.0217468,
3356,-0.0323486,0.0217712,
3358,0.0518799,0.0217468,
3360,-0.0213623,0.0217957,
3362,0.00183105,0.0216553,
3364,0.00427246,0.021521,
3366,-0.0311279,0.0215515,
3368,0.0415039,0.0214844,
3370,0.00244141,0.0214355,
3372,-0.0146484,0.0213867,
3374,0.0189209,0.0213623,
3376,-0.0146484,0.0212769,
3378,0.0317383,0.0213623,
3380,0.00671387,0.0213806,
3382,0.00244141,0.0213318,
3384,0.0183105,0.0213928,
3386,-0.00427246,0.0212769,
3388,0.0183105,0.0212463,
3390,-0.03479,0.0213806,
3392,0.032959,0.0214233,
3394,0.0183105,0.0213684,
3396,-0.0219727,0.0214355,
3398,0.0396729,0.0215515,
3400,-0.0183105,0.0213318,
3402,0.0268555,0.0213074,
3404,0.0469971,0.0214783,
3406,-0.0170898,0.0213806,
3408,0.0561523,0.021405,
3410,-0.0213623,0.0213989,
3412,-0.00610352,0.0213928,
3414,0.0146484,0.0214966,
3416,-0.0396729,0.0216736,
3418,0.0372314,0.0215332,
3420,-0.0140381,0.0216492,
3422,-0.022583,0.0217346,
3424,0.0128174,0.0217041,
3426,-0.0177002,0.0217224,
3428,0.0213623,0.0216858,
3430,0.010376,0.0216919,
3432,0.00854492,0.0216431,
3434,0.0164795,0.0217651,
3436,-0.00671387,0.0217041,
3438,0.00427246,0.0216003,
3440,-0.0164795,0.0215637,
3442,0.0457764,0.021698,
3444,0.0164795,0.0216248,
3446,-0.0323486,0.0217773,
3448,0.0408936,0.0219116,
3450,-0.0415039,0.0220032,
3452,0.0323486,0.0219055,
3454,0.0170898,0.0217773,
3456,-0.0280762,0.0216064,
3458,0.0598145,0.0216064,
3460,-0.0177002,0.0216125,
3462,-0.00366211,0.0216309,
3464,0.0152588,0.0216858,
3466,-0.0299072,0.0217957,
3468,0.0488281,0.0219116,
3470,-0.00732422,0.0219788,
3472,-0.0140381,0.0221008,
3474,0.0250244,0.0221863,
3476,-0.0250244,0.02229,
3478,0.0305176,0.02229,
3480,0.00183105,0.0221863,
3482,0.00244141,0.0221497,
3484,0.0219727,0.0222656,
3486,-0.00244141,0.0222107,
3488,0.00854492,0.0220886,
3490,-0.0366211,0.0221436,
3492,0.0335693,0.0221924,
3494,0.0268555,0.0223328,
3496,-0.0305176,0.022345,
3498,0.0305176,0.0223572,
3500,-0.0311279,0.0222168,
3502,0.0415039,0.0224365,
3504,0.0427246,0.0226257,
3506,-0.0415039,0.0228699,
3508,0.0543213,0.0227905,
3510,-0.0213623,0.0228088,
3512,0.00305176,0.0227234,
3514,0.0134277,0.0227905,
3516,-0.0427246,0.0230042,
3518,0.0280762,0.0228088,
3520,-0.00854492,0.0228394,
3522,-0.0201416,0.0228516,
3524,0.010376,0.0228638,
3526,-0.0238037,0.0229553,
3528,0.022583,0.0230347,
3530,0.00366211,0.023053,
3532,0.0158691,0.0230774,
3534,0.0177002,0.0231262,
3536,-0.00793457,0.0231873,
3538,0.012207,0.0230713,
3540,-0.0140381,0.0229675,
3542,0.0390625,0.0230225,
3544,0.00732422,0.0228516,
3546,-0.0158691,0.0227173,
3548,0.0531006,0.0228333,
3550,-0.0384521,0.0229553,
3552,0.0305176,0.0230896,
3554,0.0305176,0.0231873,
3556,-0.0177002,0.0230408,
3558,0.0628662,0.0231506,
3560,-0.0256348,0.0231934,
3562,-0.00610352,0.0232361,
3564,0.0115967,0.0233093,
3566,-0.0354004,0.0233521,
3568,0.0402832,0.0233398,
3570,-0.00244141,0.0233398,
3572,-0.0152588,0.0233459,
3574,0.0134277,0.023291,
3576,-0.010376,0.0232483,
3578,0.0396729,0.0233276,
3580,0.00244141,0.0232849,
3582,0.0262451,0.0235229,
3584,0.00854492,0.0234253,
3586,-0.0140381,0.0235229,
3588,0.0152588,0.0234924,
3590,-0.0292969,0.0234375,
3592,0.0195313,0.0233032,
3594,0.0152588,0.0232727,
3596,-0.0311279,0.0233643,
3598,0.0274658,0.0232422,
3600,-0.0231934,0.023291,
3602,0.0531006,0.0235535,
3604,0.0189209,0.0232727,
3606,-0.0256348,0.0233582,
3608,0.0549316,0.0233459,
3610,-0.0268555,0.0234009,
3612,-0.00427246,0.0233826,
3614,0.00854492,0.0233215,
3616,-0.0567627,0.0234924,
3618,0.0250244,0.0233704,
3620,-0.0115967,0.0233459,
3622,-0.0244141,0.0233643,
3624,0.0128174,0.0233643,
3626,-0.0262451,0.0234497,
3628,0.0274658,0.0235107,
3630,0.00793457,0.0234863,
3632,0.00976563,0.0234985,
3634,0.0256348,0.0235901,
3636,-0.0109863,0.0236328,
3638,0.0128174,0.0237183,
3640,-0.0189209,0.0237427,
3642,0.0250244,0.0235352,
3644,0.0213623,0.023584,
3646,-0.0231934,0.0234924,
3648,0.0360107,0.0234436,
3650,-0.0268555,0.0232971,
3652,0.0189209,0.0231628,
3654,0.032959,0.0233215,
3656,-0.0280762,0.0233215,
3658,0.0653076,0.0233765,
3660,-0.00732422,0.0232727,
3662,-0.0170898,0.023407,
3664,0.0201416,0.0234558,
3666,-0.0323486,0.0234802,
3668,0.0427246,0.0234192,
3670,-0.00488281,0.0233948,
3672,-0.0262451,0.0235168,
3674,0.0152588,0.0234192,
3676,-0.0244141,0.0234131,
3678,0.0286865,0.0233948,
3680,0.0134277,0.0235107,
3682,0.00305176,0.0235168,
3684,0.0274658,0.0235718,
3686,0,0.0235474,
3688,0.0140381,0.0236023,
3690,-0.0238037,0.0234741,
3692,0.0280762,0.0234192,
3694,0.0189209,0.0233398,
3696,-0.0213623,0.0232483,
3698,0.03479,0.023291,
3700,-0.0360107,0.0233398,
3702,0.0244141,0.0231689,
3704,0.0231934,0.0229736,
3706,-0.0177002,0.0227356,
3708,0.065918,0.0228516,
3710,-0.0134277,0.0227722,
3712,0.00610352,0.0228027,
3714,0.0250244,0.0229187,
3716,-0.0445557,0.022937,
3718,0.0488281,0.0231445,
3720,0.0109863,0.0231689,
3722,-0.0238037,0.0232056,
3724,0.0134277,0.0232361,
3726,-0.0286865,0.0232849,
3728,0.020752,0.0232666,
3730,0.0134277,0.0233643,
3732,0.00976563,0.0233032,
3734,0.0164795,0.023291,
3736,0.00244141,0.0232361,
3738,0.0195313,0.0233093,
3740,-0.0390625,0.0235596,
3742,0.0421143,0.0235901,
3744,0.0152588,0.0236694,
3746,-0.0213623,0.0237244,
3748,0.0317383,0.0235107,
3750,-0.0292969,0.0234192,
3752,0.0195313,0.0233093,
3754,0.0238037,0.0232422,
3756,-0.0354004,0.0234192,
3758,0.0616455,0.023407,
3760,-0.0244141,0.0233948,
3762,-0.0012207,0.0233459,
3764,0.0244141,0.0234741,
3766,-0.0323486,0.0234436,
3768,0.0384521,0.0234253,
3770,-0.00244141,0.0234253,
3772,-0.0170898,0.0234436,
3774,0.0152588,0.0234619,
3776,-0.0195313,0.0235535,
3778,0.0274658,0.0234314,
3780,0.00305176,0.0234375,
3782,0.00305176,0.0232056,
3784,0.0189209,0.0233093,
3786,-0.0012207,0.0231812,
3788,0.0164795,0.0231934,
3790,-0.0177002,0.0230774,
3792,0.0189209,0.0230713,
3794,0.0219727,0.0231384,
3796,-0.00671387,0.0228943,
3798,0.0427246,0.0230469,
3800,-0.0311279,0.0231262,
3802,0.0134277,0.0227295,
3804,0.0280762,0.022821,
3806,-0.0231934,0.0227966,
3808,0.0665283,0.0229126,
3810,-0.0219727,0.0228638,
3812,-0.00976563,0.0229187,
3814,0.0146484,0.0229797,
3816,-0.0317383,0.0227295,
3818,0.0427246,0.0229065,
3820,0.0164795,0.0229553,
3822,-0.0164795,0.022876,
3824,0.0164795,0.0229126,
3826,0.00366211,0.0226868,
3828,0.0378418,0.0227905,
3830,-0.0158691,0.0228699,
3832,0.00183105,0.0227905,
3834,0.03479,0.0228821,
3836,-0.00244141,0.0227966,
3838,0.0012207,0.0226807,
3840,-0.0354004,0.0228455,
3842,0.0305176,0.0229004,
3844,0.0335693,0.0230225,
3846,-0.0183105,0.0229736,
3848,0.0268555,0.0228821,
3850,-0.0238037,0.0228516,
3852,0.00305176,0.0226929,
3854,0.0256348,0.0226196,
3856,-0.0268555,0.0226074,
3858,0.0524902,0.0224792,
3860,-0.0262451,0.0226685,
3862,-0.0128174,0.0226257,
3864,0.0341797,0.0227661,
3866,-0.0384521,0.0228271,
3868,0.0335693,0.0227356,
3870,0.00915527,0.0227783,
3872,-0.00976563,0.0226135,
3874,0.00671387,0.0225281,
3876,-0.0476074,0.02276,
3878,0.0280762,0.0227539,
3880,0.00610352,0.0226807,
3882,0.0012207,0.0226624,
3884,0.0384521,0.0227722,
3886,0.0152588,0.0229248,
3888,0.0488281,0.0232727,
3890,-0.0012207,0.0230469,
3892,0.0537109,0.0233032,
3894,0.0549316,0.0236633,
3896,-0.012207,0.0235718,
3898,0.0164795,0.0233887,
3900,-0.0378418,0.023407,
3902,0.00305176,0.0231934,
3904,0.00427246,0.0230042,
3906,-0.0579834,0.023407,
3908,0.0134277,0.0228821,
3910,-0.0244141,0.0229919,
3912,-0.000610352,0.022937,
3914,0.0201416,0.0228882,
3916,-0.0250244,0.0226929,
3918,0.043335,0.0226379,
3920,-0.00366211,0.0225647,
3922,-0.00671387,0.0223938,
3924,0.0219727,0.0224792,
3926,-0.0250244,0.0224426,
3928,0.0158691,0.0223938,
3930,0.000610352,0.0222656,
3932,0.00976563,0.0222656,
3934,0.00427246,0.0221436,
3936,-0.00854492,0.0222046,
3938,0.00976563,0.0221069,
3940,0,0.0217163,
3942,0.0335693,0.0216309,
3944,0.0262451,0.0217407,
3946,-0.00976563,0.0216248,
3948,0.03479,0.0216553,
3950,-0.0183105,0.0215454,
3952,0.0146484,0.0214966,
3954,0.0683594,0.0219421,
3956,-0.057373,0.0221619,
3958,0.0415039,0.0219604,
3960,0.0292969,0.0220093,
3962,0.0109863,0.0221069,
3964,0.0152588,0.0220154,
3966,-0.0323486,0.0220154,
3968,0.0561523,0.0221924,
3970,-0.00427246,0.0222107,
3972,-0.00915527,0.0221313,
3974,0.0170898,0.0221497,
3976,-0.032959,0.0222839,
3978,0.0115967,0.0221252,
3980,0.00183105,0.022113,
3982,-0.00610352,0.0221436,
3984,0.0323486,0.0222778,
3986,-0.0262451,0.0225281,
3988,-0.00366211,0.0223999,
3990,-0.0152588,0.0223755,
3992,0.0311279,0.0224976,
3994,0.0292969,0.0225708,
3996,-0.0396729,0.0229004,
3998,0.0256348,0.0227295,
4000,-0.0280762,0.022699,
4002,0.0158691,0.0227234,
4004,0.0268555,0.0227112,
4006,-0.0372314,0.0228516,
4008,0.0616455,0.0228027,
4010,-0.0146484,0.0227295,
4012,-0.00183105,0.0226501,
4014,0.0128174,0.0226318,
4016,-0.0268555,0.022583,
4018,0.0518799,0.0226746,
4020,0.0115967,0.0226257,
4022,-0.00915527,0.0225525,
4024,0.0653076,0.0230408,
4026,0.00854492,0.0230896,
4028,0.0500488,0.0232117,
4030,-0.00732422,0.0231262,
4032,0.0457764,0.0235657,
4034,0.0384521,0.0236023,
4036,-0.0262451,0.0238403,
4038,-0.0140381,0.0239685,
4040,-0.0482178,0.0240967,
4042,-0.00549316,0.0238464,
4044,0.0299072,0.0238098,
4046,-0.0305176,0.0239319,
4048,-0.0274658,0.023938,
4050,-0.012207,0.023822,
4052,0.0482178,0.0242737,
4054,0.0384521,0.0244019,
4056,-0.0146484,0.0242798,
4058,0.0616455,0.0243713,
4060,-0.0146484,0.0242554,
4062,-0.0146484,0.0242737,
4064,0.00854492,0.0240173,
4066,-0.0360107,0.0239929,
4068,0.0439453,0.0240967,
4070,-0.00366211,0.0240417,
4072,0.00488281,0.0239929,
4074,0.0585938,0.0245117,
4076,0.022583,0.0242615,
4078,0.00427246,0.0240234,
4080,0.0164795,0.0241272,
4082,0.0335693,0.0244507,
4084,0.0256348,0.0243225,
4086,-0.0445557,0.0246155,
4088,-0.0305176,0.0244324,
4090,-0.0604248,0.0250244,
4092,-0.0231934,0.0247192,
4094,0.00610352,0.024231,
4096,-0.0323486,0.0244324,
4098,0.0286865,0.0245544,
4100,-0.0164795,0.0243408,
4102,0.0360107,0.0246704,
4104,0.0799561,0.0254272,
4106,0.0140381,0.0249878,
4108,0.122681,0.0260803,
4110,0.0299072,0.0261353,
4112,-0.0134277,0.0262634,
4114,-0.0415039,0.0264771,
4116,-0.0720215,0.026947,
4118,0.00427246,0.0265564,
4120,-0.0714111,0.0272339,
4122,-0.10498,0.0282166,
4124,-0.03479,0.0283447,
4126,-0.0335693,0.0284302,
4128,-0.0286865,0.0285583,
4130,-0.0158691,0.0287109,
4132,0.020752,0.0288208,
4134,0.0378418,0.0291565,
4136,0.00732422,0.0291443,
4138,-0.0146484,0.0291931,
4140,-0.0561523,0.0297546,
4142,0.00610352,0.02948,
4144,-0.0012207,0.0292297,
4146,-0.0268555,0.0294006,
4148,0.00549316,0.0291077,
4150,-0.0665283,0.0295898,
4152,-0.00610352,0.0295044,
4154,0.0769043,0.0295898,
4156,0.0531006,0.0295471,
4158,0.101929,0.0301514,
4160,-0.0488281,0.0303467,
4162,-0.0317383,0.0305542,
4164,0.0500488,0.0309021,
4166,-0.0543213,0.0311218,
4168,-0.00366211,0.0305969,
4170,-0.078125,0.0313354,
4172,-0.110474,0.0323486,
4174,-0.0756836,0.0329346,
4176,-0.0531006,0.033136,
4178,0.00366211,0.0330566,
4180,0.0360107,0.0333984,
4182,-0.0177002,0.0335144,
4184,0.012207,0.033313,
4186,-0.032959,0.0333801,
4188,-0.0128174,0.0334717,
4190,-0.0286865,0.033606,
4192,-0.0500488,0.0337952,
4194,-0.0268555,0.0337708,
4196,-0.0622559,0.0339966,
4198,0.0231934,0.0339722,
4200,-0.0354004,0.0340454,
4202,0.0427246,0.034314,
4204,0.0933838,0.0349792,
4206,0.00610352,0.034668,
4208,0.0671387,0.0347229,
4210,-0.0238037,0.0348145,
4212,-0.00366211,0.0348328,
4214,-0.0299072,0.0350037,
4216,-0.0848389,0.0355835,
4218,-0.0549316,0.035614,
4220,-0.114746,0.0366455,
4222,-0.101929,0.0375732,
4224,-0.00854492,0.0370056,
4226,0.0238037,0.0371582,
4228,0.0274658,0.0369324,
4230,-0.00427246,0.0369019,
4232,0.0305176,0.0367493,
4234,0.0793457,0.0371582,
4236,-0.0219727,0.0371155,
4238,-0.0616455,0.0375916,
4240,-0.0952148,0.0380615,
4242,-0.0518799,0.0385254,
4244,-0.0415039,0.0386414,
4246,-0.170898,0.0400452,
4248,-0.0640869,0.0404114,
4250,-0.0817871,0.0411072,
4252,0.00305176,0.0406555,
4254,0.0927734,0.0411987,
4256,0.0439453,0.0414917,
4258,-0.120239,0.0420776,
4260,-0.0360107,0.0422913,
4262,0.0665283,0.0428101,
4264,-0.00183105,0.0427429,
4266,-0.0775146,0.043158,
4268,0.00549316,0.0427734,
4270,-0.0305176,0.043042,
4272,-0.101318,0.0440063,
4274,0.0292969,0.0437134,
4276,-0.0311279,0.0437988,
4278,0.00915527,0.0438477,
4280,-0.020752,0.0438904,
4282,-0.0512695,0.0440674,
4284,-0.012207,0.0439331,
4286,-0.0286865,0.0437744,
4288,0.0012207,0.0434814,
4290,0.00915527,0.0429688,
4292,-0.0219727,0.0429565,
4294,0.0170898,0.0430664,
4296,0.0183105,0.042926,
4298,0.012207,0.0427612,
4300,-0.0958252,0.0435547,
4302,-0.0354004,0.0435486,
4304,-0.00671387,0.0428162,
4306,-0.0866699,0.0435425,
4308,0.0323486,0.0426392,
4310,-0.0476074,0.0428162,
4312,-0.0610352,0.0432922,
4314,0.0891113,0.0437683,
4316,-0.0292969,0.0433411,
4318,0.0500488,0.0437988,
4320,0.0177002,0.0432617,
4322,-0.0396729,0.0426086,
4324,-0.00305176,0.0422913,
4326,-0.0537109,0.0424927,
4328,0.0177002,0.0423828,
4330,-0.0457764,0.0426819,
4332,0.00549316,0.0425293,
4334,0.0396729,0.0425476,
4336,0.0183105,0.0426575,
4338,0.0537109,0.0430481,
4340,0.0384521,0.0428711,
4342,0.0384521,0.0431946,
4344,0.0982666,0.044165,
4346,-0.0292969,0.0441895,
4348,-0.0396729,0.0445312,
4350,-0.0848389,0.0447144,
4352,0.0140381,0.0447937,
4354,0.108032,0.045105,
4356,-0.192261,0.0464966,
4358,-0.0189209,0.0456665,
4360,-0.0653076,0.0458313,
4362,-0.0250244,0.0457642,
4364,0.0909424,0.0461731,
4366,0.000610352,0.045636,
4368,-0.0732422,0.0463318,
4370,-0.0531006,0.0460815,
4372,-0.0170898,0.0451477,
4374,0.0244141,0.044635,
4376,-0.0604248,0.0447083,
4378,0.0665283,0.0453369,
4380,0.0860596,0.0458374,
4382,0.0634766,0.0462952,
4384,-0.0469971,0.0466431,
4386,-0.0109863,0.0464233,
4388,0.03479,0.0466431,
4390,-0.0311279,0.0466675,
4392,-0.0268555,0.0464355,
4394,-0.0842285,0.0470093,
4396,-0.162964,0.0480164,
4398,-0.0872803,0.0486572,
4400,-0.0805664,0.0491089,
4402,-0.0708008,0.0493896,
4404,0.111084,0.0495667,
4406,-0.111694,0.0506226,
4408,0.0274658,0.0502258,
4410,-0.0164795,0.0501526,
4412,0.0128174,0.0502441,
4414,0.0140381,0.0500854,
4416,-0.112305,0.0503601,
4418,0.012207,0.0499329,
4420,-0.0238037,0.0490234,
4422,-0.0152588,0.0481567,
4424,-0.0299072,0.0483704,
4426,0.00976563,0.04823,
4428,0.00183105,0.0479736,
4430,0.0830078,0.048761,
4432,-0.0915527,0.0493713,
4434,0.0439453,0.0490173,
4436,0.00488281,0.0488464,
4438,-0.00915527,0.0483215,
4440,-0.0354004,0.0477234,
4442,-0.0140381,0.047345,
4444,-0.0256348,0.0471863,
4446,0.0579834,0.0460571,
4448,0.0488281,0.0459045,
4450,-0.00976563,0.0451843,
4452,0.10376,0.0461914,
4454,-0.0250244,0.0455139,
4456,0.126953,0.046344,
4458,0.0799561,0.0459412,
4460,0.124512,0.0468262,
4462,0.12146,0.0473755,
4464,-0.0335693,0.0476929,
4466,-0.133667,0.0482544,
4468,-0.0402832,0.0486023,
4470,0.00427246,0.0483398,
4472,-0.129395,0.0486206,
4474,-0.0726318,0.049054,
4476,-0.0897217,0.0496399,
4478,-0.0238037,0.0497864,
4480,0.0598145,0.050177,
4482,-0.128174,0.050946,
4484,0.0262451,0.0510864,
4486,0.0323486,0.051123,
4488,-0.022583,0.0513367,
4490,-0.090332,0.0521484,
4492,-0.126343,0.0531921,
4494,-0.0787354,0.0538086,
4496,-0.131836,0.0549438,
4498,-0.0488281,0.0553101,
4500,-0.0494385,0.0548462,
4502,-0.0457764,0.05495,
4504,0.0262451,0.0551453,
4506,0.0610352,0.0548889,
4508,0.020752,0.0547729,
4510,-0.0360107,0.054657,
4512,0.0378418,0.054425,
4514,0.0891113,0.054425,
4516,-0.0579834,0.0547119,
4518,-0.0213623,0.054425,
4520,0,0.054248,
4522,-0.0354004,0.0542053,
4524,0.0909424,0.0550842,
4526,0.109863,0.0556458,
4528,0.203247,0.0575012,
4530,0.0561523,0.057605,
4532,-0.0469971,0.05802,
4534,0.299072,0.060614,
4536,0.0805664,0.0612366,
4538,-0.0708008,0.0614075,
4540,-0.177612,0.0627991,
4542,-0.0299072,0.0627136,
4544,0.0897217,0.0626282,
4546,-0.0787354,0.0631226,
4548,0.2948,0.0656738,
4550,-0.0183105,0.0650085,
4552,0.17334,0.0666016,
4554,0.108643,0.0666077,
4556,-0.181274,0.0664978,
4558,0.108643,0.067395,
4560,-0.0592041,0.067334,
4562,-0.214844,0.0692322,
4564,-0.292358,0.0712463,
4566,-0.219116,0.0734314,
4568,0.0683594,0.0733826,
4570,0.0280762,0.0731323,
4572,0.0927734,0.0738892,
4574,0.0866699,0.0745117,
4576,-0.206909,0.0759766,
4578,0.102539,0.0763367,
4580,0.101318,0.0764893,
4582,-0.111084,0.0769653,
4584,-0.216064,0.078656,
4586,-0.17395,0.0802856,
4588,0.0543213,0.080481,
4590,0.159302,0.0817627,
4592,0.199585,0.08349,
4594,-0.057373,0.0832214,
4596,0.140381,0.0829956,
4598,0.10498,0.0831726,
4600,0.0756836,0.0831238,
4602,-0.0213623,0.0826294,
4604,-0.142822,0.0829468,
4606,-0.229492,0.0841248,
4608,0.141602,0.0852661,
4610,-0.0195313,0.0852966,
4612,-0.0567627,0.0857361,
4614,0.279541,0.0883911,
4616,0.159302,0.0888611,
4618,0.26001,0.0913391,
4620,0.178223,0.0928833,
4622,-0.0512695,0.0932434,
4624,0.0836182,0.0937805,
4626,-0.0653076,0.0943359,
4628,-0.110474,0.0954224,
4630,-0.27771,0.0973694,
4632,-0.272217,0.099176,
4634,-0.117188,0.0999084,
4636,-0.109863,0.100958,
4638,-0.0201416,0.101068,
4640,-0.204468,0.102759,
4642,0.0341797,0.10296,
4644,0.211182,0.104816,
4646,0.0128174,0.104364,
4648,0.0183105,0.104059,
4650,0.000610352,0.103967,
4652,0.00305176,0.10296,
4654,0.000610352,0.102716,
4656,0.0109863,0.101556,
4658,0.0878906,0.101636,
4660,0.106812,0.101459,
4662,0.0305176,0.100549,
4664,-0.0958252,0.101172,
4666,0.00305176,0.0998657,
4668,0.0604248,0.100067,
4670,0.00976563,0.100122,
4672,0.0640869,0.099469,
4674,-0.181885,0.100562,
4676,-0.0653076,0.100317,
4678,-0.155029,0.10163,
4680,0.0994873,0.102026,
4682,0.12085,0.101953,
4684,0.100098,0.102692,
4686,0.0311279,0.102679,
4688,0.124512,0.103699,
4690,-0.151367,0.104309,
4692,0.0769043,0.103815,
4694,0.0427246,0.103455,
4696,-0.0372314,0.102509,
4698,-0.0848389,0.102869,
4700,-0.249634,0.104871,
4702,-0.0897217,0.10531,
4704,0.135498,0.106403,
4706,-0.0579834,0.106372,
4708,0.0744629,0.106909,
4710,0.129395,0.107843,
4712,0.19043,0.109369,
4714,0.12085,0.109686,
4716,-0.119629,0.110303,
4718,0.12146,0.111304,
4720,0.010376,0.111407,
4722,-0.0756836,0.11181,
4724,-0.161133,0.112512,
4726,-0.133057,0.112744,
4728,-0.0598145,0.11131,
4730,-0.0543213,0.111292,
4732,0.0732422,0.111554,
4734,0.00488281,0.108612,
4736,0.0274658,0.108081,
4738,0.0494385,0.107867,
4740,0.201416,0.108105,
4742,0.125122,0.109058,
4744,-0.134277,0.109503,
4746,-0.12146,0.10993,
4748,0.10376,0.10802,
4750,-0.0317383,0.108154,
4752,-0.0286865,0.106708,
4754,0.0628662,0.10625,
4756,0.0305176,0.104742,
4758,0.00488281,0.103705,
4760,0.00366211,0.103149,
4762,0.167847,0.102679,
4764,0.151978,0.101276,
4766,-0.119629,0.100281,
4768,-0.288086,0.102478,
4770,-0.0292969,0.10249,
4772,0.0335693,0.101898,
4774,-0.176392,0.102795,
4776,-0.231323,0.10304,
4778,-0.00732422,0.102087,
4780,-0.00244141,0.101099,
4782,0.0469971,0.100458,
4784,0.244141,0.100739,
4786,-0.0512695,0.0995117,
4788,0.129395,0.100262,
4790,0.132446,0.0999939,
4792,-0.0012207,0.0980103,
4794,-0.0158691,0.0975952,
4796,-0.101318,0.0972046,
4798,-0.0445557,0.0966003,
4800,-0.128174,0.0971252,
4802,-0.0537109,0.0974487,
4804,-0.078125,0.0968018,
4806,-0.133667,0.0958435,
4808,0.0323486,0.094751,
4810,0.114136,0.095697,
4812,-0.00549316,0.0951843,
4814,0.0292969,0.0926819,
4816,-0.00915527,0.0911804,
4818,0.200195,0.0905823,
4820,-0.0799561,0.0895996,
4822,-0.0335693,0.0894226,
4824,0.03479,0.0889343,
4826,0.00549316,0.0883362,
4828,-0.0671387,0.0879028,
4830,-0.0201416,0.0853271,
4832,-0.0726318,0.0833313,
4834,-0.0335693,0.0824951,
4836,0.0183105,0.0815796,
4838,0.101318,0.0823914,
4840,0.12085,0.0815552,
4842,0.133667,0.08255,
4844,-0.0238037,0.0806763,
4846,0.0341797,0.0808899,
4848,0.26062,0.083313,
4850,0.00244141,0.0833313,
4852,-0.19165,0.0852173,
4854,-0.0787354,0.0859985,
4856,-0.128784,0.0871765,
4858,0.0250244,0.0865479,
4860,-0.152588,0.0870056,
4862,-0.103149,0.0877319,
4864,0.00915527,0.0868652,
4866,0.0268555,0.0871033,
4868,0.0769043,0.0872681,
4870,-0.0671387,0.0878418,
4872,0,0.0872009,
4874,0.0817871,0.0862,
4876,-0.117798,0.0867249,
4878,0.0292969,0.0854675,
4880,0.0128174,0.0846008,
4882,-0.0341797,0.0837341,
4884,-0.0408936,0.0831421,
4886,0.032959,0.0831604,
4888,0.0646973,0.0825623,
4890,-0.067749,0.0817261,
4892,0.154419,0.0825012,
4894,0.164185,0.0837158,
4896,0.174561,0.0850891,
4898,0.00305176,0.0842712,
4900,-0.140991,0.0831848,
4902,0.0738525,0.0830261,
4904,0.0720215,0.0823914,
4906,-0.109863,0.0829102,
4908,0.0671387,0.0828369,
4910,0.0640869,0.0821838,
4912,-0.0177002,0.0804565,
4914,-0.0195313,0.0794434,
4916,0.0012207,0.0782593,
4918,0.267944,0.0797241,
4920,0.0872803,0.0804932,
4922,-0.177612,0.0815125,
4924,-0.164185,0.081543,
4926,-0.0769043,0.0809814,
4928,-0.0860596,0.0812439,
4930,-0.148926,0.0821899,
4932,-0.158081,0.0830383,
4934,-0.0646973,0.0836365,
4936,0,0.0833618,
4938,-0.0714111,0.0835815,
4940,-0.00427246,0.0816101,
4942,0.0830078,0.081189,
4944,0.136719,0.0812134,
4946,-0.0201416,0.0802002,
4948,0.0201416,0.079364,
4950,-0.0299072,0.0793457,
4952,0.130005,0.0803589,
4954,0.00427246,0.0797729,
4956,0.0109863,0.0795776,
4958,0.0787354,0.0803162,
4960,-0.0213623,0.0804932,
4962,0.0012207,0.0788269,
4964,-0.0598145,0.0779053,
4966,-0.0231934,0.0769409,
4968,0.0305176,0.0743652,
4970,0.0701904,0.0747742,
4972,-0.0305176,0.0747437,
4974,-0.0878906,0.0738586,
4976,0.0012207,0.0715576,
4978,0.0341797,0.0718262,
4980,0.0115967,0.0719177,
4982,0.0616455,0.0720642,
4984,0.0799561,0.0704224,
4986,-0.0531006,0.0704407,
4988,-0.010376,0.0692505,
4990,-0.0146484,0.0680725,
4992,0.0860596,0.0689209,
4994,0.115356,0.0699158,
4996,-0.126343,0.070166,
4998,-0.0799561,0.07052,
5000,-0.0280762,0.069519,
5002,-0.00915527,0.0690735,
5004,-0.010376,0.068396,
5006,-0.122681,0.0682861,
5008,0.113525,0.0690979,
5010,-0.0323486,0.06828,
5012,0.0518799,0.0687439,
5014,-0.0128174,0.0685791,
5016,0.010376,0.0685913,
5018,0.0109863,0.0666992,
5020,0.00244141,0.0659241,
5022,-0.0311279,0.0658997,
5024,-0.0341797,0.0658936,
5026,-0.119019,0.0670288,
5028,-0.0524902,0.0668823,
5030,0,0.0666809,
5032,-0.0286865,0.0662415,
5034,0.0335693,0.0662415,
5036,0.0653076,0.0667114,
5038,0.0183105,0.0658813,
5040,0.101318,0.065686,
5042,0.136719,0.0657166,
5044,0.0646973,0.0661255,
5046,0.0775146,0.0665588,
5048,-0.0262451,0.0642151,
5050,-0.0683594,0.0648743,
5052,0.106812,0.0640259,
5054,-0.0463867,0.0637024,
5056,-0.166626,0.0640808,
5058,0.0012207,0.0638428,
5060,0.00793457,0.0623962,
5062,0.0958252,0.062323,
5064,0.0811768,0.0630432,
5066,-0.134277,0.0641174,
5068,0.0836182,0.0641846,
5070,0.161133,0.0651245,
5072,0.10437,0.0661682,
5074,-0.217896,0.0675293,
5076,-0.142822,0.0677795,
5078,0,0.0674866,
5080,-0.0585938,0.0679443,
5082,-0.133057,0.0689331,
5084,-0.0598145,0.0691223,
5086,-0.0891113,0.0696838,
5088,-0.0244141,0.069281,
5090,0.0616455,0.06922,
5092,0.136719,0.069043,
5094,0.160522,0.0690063,
5096,0.0469971,0.0677307,
5098,-0.0396729,0.0680969,
5100,-0.100708,0.0676941,
5102,0.045166,0.0674072,
5104,0.0231934,0.0669189,
5106,-0.15625,0.0673828,
5108,0.00305176,0.0667419,
5110,-0.0640869,0.0667419,
5112,0.0177002,0.0667419,
5114,0.128174,0.0678284,
5116,0.0128174,0.0679443,
5118,0.0518799,0.0657837,
5120,0.0421143,0.065332,
5122,-0.0274658,0.0638306,
5124,-0.0415039,0.0626038,
5126,-0.112915,0.0629639,
5128,-0.0769043,0.0628723,
5130,-0.0305176,0.0616882,
5132,-0.0463867,0.0605713,
5134,0.0286865,0.0602112,
5136,0.0952148,0.0611633,
5138,0.0341797,0.060791,
5140,0.0665283,0.0614136,
5142,0.158081,0.0621643,
5144,0.150757,0.0623047,
5146,0.0402832,0.0625061,
5148,0.0848389,0.0631531,
5150,-0.020752,0.0630615,
5152,-0.117798,0.0629395,
5154,0.0720215,0.0636169,
5156,-0.140991,0.064917,
5158,-0.0622559,0.0647522,
5160,-0.180664,0.0663452,
5162,-0.127563,0.0676086,
5164,0.0469971,0.0674805,
5166,-0.00305176,0.0672791,
5168,0.0335693,0.0673096,
5170,0.0195313,0.066803,
5172,0.108032,0.0675781,
5174,0.0512695,0.0672119,
5176,0.0115967,0.0673157,
5178,0.0128174,0.0671021,
5180,-0.00976563,0.0670837,
5182,-0.111694,0.0675842,
5184,0.00183105,0.066803,
5186,-0.0488281,0.0667603,
5188,-0.0140381,0.0667969,
5190,0.0408936,0.0670593,
5192,0.00610352,0.0662598,
5194,0.0262451,0.0653687,
5196,0.119629,0.0653015,
5198,0.00976563,0.0645996,
5200,-0.0646973,0.0649658,
5202,-0.0189209,0.0650635,
5204,-0.00610352,0.0650208,
5206,-0.0787354,0.0645813,
5208,-0.0305176,0.0637512,
5210,-0.088501,0.0643127,
5212,-0.0195313,0.0639893,
5214,0.0793457,0.0646545,
5216,0.00671387,0.0646179,
5218,0.116577,0.0656738,
5220,0.0634766,0.0662842,
5222,0.0476074,0.066449,
5224,0.000610352,0.0661133,
5226,-0.0219727,0.0651428,
5228,0.043335,0.0650513,
5230,-0.0616455,0.0656677,
5232,-0.0769043,0.0661499,
5234,-0.0378418,0.0661926,
5236,0.03479,0.0658875,
5238,0.0439453,0.0661438,
5240,0.114746,0.0662781,
5242,0.00427246,0.0649536,
5244,0.0866699,0.0651733,
5246,0.0933838,0.065332,
5248,0.0213623,0.0652832,
5250,-0.00244141,0.064624,
5252,-0.0500488,0.0640564,
5254,-0.144043,0.065033,
5256,-0.0622559,0.0639893,
5258,-0.0518799,0.0644958,
5260,-0.0915527,0.065332,
5262,-0.055542,0.0649292,
5264,0.0170898,0.0642883,
5266,-0.169678,0.0646423,
5268,0.0323486,0.0641296,
5270,0.00366211,0.0625549,
5272,-0.0189209,0.0617004,
5274,0.00671387,0.0595886,
5276,0.0701904,0.0588623,
5278,0.136719,0.0602295,
5280,0.136108,0.0610046,
5282,-0.0189209,0.0598633,
5284,0.192261,0.0611877,
5286,0.112915,0.0614258,
5288,0.133667,0.0625183,
5290,-0.153809,0.0634399,
5292,-0.0335693,0.0624084,
5294,-0.0744629,0.0615479,
5296,-0.134277,0.0624207,
5298,-0.0830078,0.062854,
5300,-0.140381,0.0632507,
5302,0.0195313,0.0629944,
5304,0.0964355,0.0637268,
5306,0.0012207,0.0621765,
5308,0.163574,0.0637817,
5310,0.032959,0.0634705,
5312,0.313721,0.0664307,
5314,-0.0158691,0.0653076,
5316,-0.131226,0.0664917,
5318,0.0152588,0.0661255,
5320,-0.0445557,0.0661499,
5322,-0.0830078,0.0667053,
5324,-0.0109863,0.0664001,
5326,-0.0915527,0.0661865,
5328,-0.0219727,0.0656372,
5330,0.0714111,0.0660461,
5332,0.164795,0.0672302,
5334,0.0598145,0.0675415,
5336,-0.0445557,0.0670349,
5338,0.0866699,0.0675598,
5340,0.0518799,0.0674133,
5342,-0.0457764,0.0662903,
5344,-0.0170898,0.0649536,
5346,-0.0689697,0.0652405,
5348,-0.0469971,0.0648621,
5350,-0.117188,0.0658264,
5352,-0.0292969,0.0649414,
5354,-0.0164795,0.064386,
5356,-0.0268555,0.0632446,
5358,0.151367,0.0641357,
5360,-0.126343,0.0635925,
5362,0.03479,0.0626648,
5364,-0.012207,0.0623169,
5366,-0.03479,0.0626343,
5368,0.0360107,0.0626587,
5370,-0.0701904,0.0631653,
5372,-0.0970459,0.0630554,
5374,-0.0299072,0.0628418,
5376,-0.146484,0.0641907,
5378,0.0366211,0.0644287,
5380,0.101318,0.0653442,
5382,0.159912,0.0658264,
5384,0.218506,0.0679932,
5386,-0.0292969,0.0677979,
5388,0.0238037,0.0678955,
5390,-0.0109863,0.0675964,
5392,0.0762939,0.0682983,
5394,-0.0415039,0.0684509,
5396,-0.098877,0.0682434,
5398,-0.134888,0.0694946,
5400,-0.0421143,0.0692688,
5402,0.0512695,0.0695923,
5404,0.265503,0.0721863,
5406,0.209961,0.0734985,
5408,0.139771,0.0745911,
5410,-0.134277,0.0750488,
5412,0.0250244,0.0751038,
5414,0.202026,0.0763306,
5416,-0.218506,0.0784485,
5418,-0.0402832,0.0776855,
5420,-0.246582,0.0795166,
5422,-0.155029,0.0805908,
5424,-0.0726318,0.081311,
5426,-0.0512695,0.081604,
5428,0.0805664,0.0819763,
5430,0.176392,0.0831238,
5432,0.205078,0.0844055,
5434,0.178223,0.0858093,
5436,-0.0701904,0.0861633,
5438,0.0982666,0.0867065,
5440,-0.0616455,0.0861755,
5442,-0.0152588,0.0862854,
5444,-0.122681,0.0866455,
5446,-0.160522,0.0873169,
5448,-0.132446,0.0884277,
5450,-0.15625,0.0899658,
5452,-0.0500488,0.0899658,
5454,-0.0488281,0.0890137,
5456,0.00244141,0.0884155,
5458,0.0915527,0.0888123,
5460,0.0390625,0.0882874,
5462,0.117798,0.0889099,
5464,-0.000610352,0.0887451,
5466,-0.0891113,0.0879395,
5468,0.108643,0.0887024,
5470,0.10437,0.0897095,
5472,-0.0701904,0.0902222,
5474,0.134888,0.0915039,
5476,0.0494385,0.0912964,
5478,-0.0878906,0.0908081,
5480,0.171509,0.0911621,
5482,0.140991,0.0923828,
5484,0.160522,0.0920654,
5486,-0.183716,0.0927734,
5488,-0.0823975,0.0922607,
5490,0.0708008,0.0914307,
5492,0.0286865,0.0913818,
5494,-0.0262451,0.0908997,
5496,-0.0665283,0.0902222,
5498,-0.088501,0.0902771,
5500,-0.055542,0.0894287,
5502,0.142822,0.0906616,
5504,0.170288,0.0914001,
5506,0.15625,0.0929504,
5508,-0.00488281,0.0913635,
5510,-0.144653,0.0924805,
5512,0.0933838,0.0902771,
5514,-0.0183105,0.0903015,
5516,-0.134888,0.0903381,
5518,-0.0390625,0.0905762,
5520,-0.00305176,0.0901611,
5522,0.00915527,0.0894226,
5524,0.120239,0.0905151,
5526,-0.170288,0.0913025,
5528,0.313721,0.09422,
5530,0.0848389,0.0943542,
5532,-0.110474,0.093811,
5534,-0.0585938,0.0937988,
5536,-0.0683594,0.0940369,
5538,-0.157471,0.0947449,
5540,-0.195313,0.0961792,
5542,-0.153809,0.0972595,
5544,-0.0512695,0.0976013,
5546,0.0592041,0.0975037,
5548,0.120239,0.0982361,
5550,0.131836,0.0983826,
5552,0.19165,0.100006,
5554,-0.0799561,0.100641,
5556,-0.0268555,0.100641,
5558,0.181274,0.10094,
5560,0.0634766,0.100311,
5562,-0.0793457,0.100757,
5564,-0.0115967,0.100751,
5566,-0.145264,0.101855,
5568,0.0897217,0.102393,
5570,0.198364,0.103674,
5572,0.22644,0.104968,
5574,0.343018,0.108099,
5576,-0.0256348,0.106891,
5578,-0.0415039,0.10694,
5580,-0.0744629,0.106671,
5582,0.0842285,0.105914,
5584,0.00183105,0.103748,
5586,-0.155029,0.105005,
5588,-0.339966,0.108167,
5590,-0.159302,0.10965,
5592,-0.0665283,0.109552,
5594,0.0830078,0.109967,
5596,0.0469971,0.109448,
5598,-0.00854492,0.108185,
5600,-0.0958252,0.108722,
5602,-0.0012207,0.108221,
5604,0.0219727,0.105786,
5606,-0.10498,0.104736,
5608,-0.00366211,0.103375,
5610,-0.020752,0.10224,
5612,-0.109253,0.103082,
5614,0.109253,0.102155,
5616,0.090332,0.100873,
5618,0.163574,0.102106,
5620,0.129395,0.100934,
5622,0.161133,0.100995,
5624,0.267334,0.102942,
5626,-0.0708008,0.103137,
5628,-0.116577,0.103497,
5630,-0.0396729,0.10213,
5632,-0.106812,0.101147,
5634,-0.0415039,0.0997803,
5636,-0.0439453,0.0995178,
5638,-0.133057,0.0998657,
5640,0.0531006,0.0997803,
5642,-0.0238037,0.0998657,
5644,0.132446,0.0999634,
5646,0.131836,0.0996765,
5648,0.0518799,0.0988708,
5650,-0.137329,0.0986816,
5652,0.00732422,0.0982544,
5654,-0.0427246,0.0981934,
5656,-0.0854492,0.0990234,
5658,0.0750732,0.0988586,
5660,-0.0115967,0.098584,
5662,-0.0274658,0.0976807,
5664,0.159912,0.0992737,
5666,0.200195,0.100385,
5668,0.203857,0.101337,
5670,0.119019,0.101483,
5672,-0.197754,0.102759,
5674,-0.0360107,0.10177,
5676,0.0793457,0.102069,
5678,-0.0744629,0.101935,
5680,-0.206909,0.102289,
5682,-0.108032,0.101959,
5684,-0.0262451,0.100616,
5686,-0.0561523,0.0993408,
5688,-0.0189209,0.0987061,
5690,-0.0317383,0.0983154,
5692,-0.0213623,0.0982422,
5694,0.0128174,0.0981079,
5696,-0.0317383,0.09776,
5698,0.0463867,0.0973389,
5700,0.00244141,0.0968079,
5702,-0.0482178,0.0958618,
5704,0.0775146,0.0949341,
5706,-0.0524902,0.0938965,
5708,0.0866699,0.0947144,
5710,0.0830078,0.0940979,
5712,0.131226,0.0944763,
5714,0.032959,0.0946228,
5716,-0.123901,0.0945129,
5718,0.0878906,0.0950012,
5720,0.0140381,0.0951111,
5722,0.0299072,0.0953186,
5724,-0.0238037,0.0943542,
5726,-0.0531006,0.0931824,
5728,-0.0189209,0.0902344,
5730,-0.0396729,0.0897827,
5732,-0.123901,0.089917,
5734,0.00366211,0.0893677,
5736,0.000610352,0.0886902,
5738,0.00366211,0.0871521,
5740,0,0.085199,
5742,-0.00854492,0.0837463,
5744,0.0463867,0.0836975,
5746,-0.0115967,0.0832214,
5748,0.0280762,0.0822998,
5750,0.03479,0.0813293,
5752,0.0653076,0.0800659,
5754,0.108643,0.0803528,
5756,-0.0195313,0.0802795,
5758,0.0732422,0.0791992,
5760,0.0762939,0.0793274,
5762,0.0286865,0.0788208,
5764,-0.00610352,0.0787659,
5766,-0.0683594,0.0779968,
5768,0.0567627,0.0776672,
5770,0.0500488,0.0761841,
5772,-0.0561523,0.0744812,
5774,0.0274658,0.0713257,
5776,0.00732422,0.0711426,
5778,0.0372314,0.0710999,
5780,0.0140381,0.0704956,
5782,-0.00732422,0.0697266,
5784,0.078125,0.0704895,
5786,0.0378418,0.0693176,
5788,0.0292969,0.0662109,
5790,0.0189209,0.0648071,
5792,0.0311279,0.0644531,
5794,0.0579834,0.0642029,
5796,-0.0146484,0.0638794,
5798,0.0683594,0.0644775,
5800,0.0115967,0.0636353,
5802,0.0311279,0.0639343,
5804,0.0421143,0.0641357,
5806,-0.0598145,0.0636841,
5808,0.0952148,0.0645996,
5810,-0.0140381,0.0645325,
5812,-0.0543213,0.0639832,
5814,0.0518799,0.0634094,
5816,-0.0384521,0.0628906,
5818,0.0305176,0.0615601,
5820,-0.043335,0.0606995,
5822,-0.0665283,0.0597534,
5824,0.0402832,0.0574829,
5826,-0.0311279,0.0570862,
5828,-0.0109863,0.0560303,
5830,-0.0244141,0.0558777,
5832,-0.0140381,0.05495,
5834,0.0598145,0.0551331,
5836,0.0537109,0.0552307,
5838,0.00976563,0.0539978,
5840,0.0402832,0.0538696,
5842,-0.0805664,0.0544373,
5844,0.0756836,0.0538696,
5846,0.0567627,0.0531189,
5848,0.0500488,0.0531006,
5850,0.00732422,0.0518005,
5852,0.0250244,0.0519775,
5854,0.0769043,0.0523193,
5856,0.0335693,0.0518005,
5858,0.119019,0.05224,
5860,0.0415039,0.0525391,
5862,-0.0720215,0.0529846,
5864,0.0115967,0.0515015,
5866,-0.0543213,0.0500427,
5868,-0.0598145,0.0486023,
5870,-0.0756836,0.0481689,
5872,-0.0738525,0.0469299,
5874,-0.0128174,0.046698,
5876,-0.0415039,0.0463196,
5878,-0.0146484,0.0457214,
5880,0.0476074,0.0441284,
5882,-0.0439453,0.0434875,
5884,0.0622559,0.0438477,
5886,0.0195313,0.0434814,
5888,-0.00305176,0.0433228,
5890,-0.00671387,0.0430725,
5892,0.00427246,0.0429016,
5894,0.0396729,0.0431702,
5896,0.0152588,0.0430054,
5898,0.0543213,0.0430847,
5900,0.022583,0.0432861,
5902,0.0384521,0.0431885,
5904,0.101318,0.0434265,
5906,-0.00732422,0.0429749,
5908,0.109863,0.0432068,
5910,0.0585938,0.0429626,
5912,0.00671387,0.0417175,
5914,0.0823975,0.0422119,
5916,-0.000610352,0.040979,
5918,0.067749,0.0407776,
5920,0.0286865,0.0409241,
5922,-0.012207,0.0407471,
5924,0.0512695,0.0410217,
5926,-0.0476074,0.0409668,
5928,0.0463867,0.0412415,
5930,0.0268555,0.0411133,
5932,-0.0592041,0.0404663,
5934,0.0305176,0.0407349,
5936,0.0341797,0.0410706,
5938,-0.00427246,0.0410767,
5940,-0.00305176,0.0411072,
5942,-0.0372314,0.041394,
5944,0.0292969,0.0412231,
5946,0.012207,0.0412292,
5948,0,0.0409485,
5950,-0.0140381,0.040741,
5952,0.00610352,0.0401489,
5954,0.0610352,0.0396729,
5956,0.0268555,0.0397461,
5958,0.102539,0.0400391,
5960,0.0915527,0.0401917,
5962,-0.00915527,0.0399963,
5964,0.107422,0.0410095,
5966,0.043335,0.0407593,
5968,0.109863,0.0412903,
5970,-0.0134277,0.0409241,
5972,-0.0158691,0.0405212,
5974,0.0604248,0.0408508,
5976,0.00610352,0.0408386,
5978,-0.0140381,0.0406067,
5980,0.0189209,0.0406555,
5982,-0.0231934,0.0408142,
5984,0.0512695,0.0405457,
5986,0.0695801,0.040863,
5988,0.0744629,0.0413147,
5990,0.065918,0.0417847,
5992,-0.0134277,0.0416077,
5994,0.00366211,0.0410645,
5996,0.0598145,0.0415161,
5998,0.0500488,0.041333,
6000,0.00610352,0.0412781,
6002,0.000610352,0.0409729,
6004,0.0286865,0.0408386,
6006,-0.0201416,0.0404419,
6008,0.0769043,0.0402588,
6010,0.0579834,0.0406982,
6012,0.0268555,0.0404236,
6014,0.0958252,0.040863,
6016,0.0195313,0.0406738,
6018,0.0976563,0.0413452,
6020,0.00915527,0.0410034,
6022,0.0292969,0.0406311,
6024,0.127563,0.0415039,
6026,0.0177002,0.0413696,
6028,0.0402832,0.0416626,
6030,0.057373,0.0419922,
6032,-0.000610352,0.0418579,
6034,0.065918,0.0419189,
6036,0.0549316,0.0419312,
6038,0.0494385,0.0423279,
6040,0.0457764,0.0423828,
6042,0.0457764,0.0420349,
6044,0.0653076,0.0419312,
6046,0.0604248,0.0419678,
6048,0.0482178,0.0419495,
6050,0.0518799,0.042395,
6052,0.0756836,0.0429016,
6054,0.0567627,0.0427002,
6056,-0.022583,0.0425903,
6058,0.0653076,0.0420532,
6060,0.0714111,0.0423523,
6062,0.0372314,0.0420044,
6064,0.0939941,0.0428284,
6066,0.0292969,0.0425781,
6068,0.0854492,0.0428345,
6070,0.043335,0.042511,
6072,0.022583,0.0419983,
6074,0.0720215,0.0425903,
6076,-0.00488281,0.0422241,
6078,-0.00610352,0.0421387,
6080,-0.0128174,0.0417908,
6082,-0.0256348,0.0416077,
6084,0.0610352,0.0415955,
6086,0.0146484,0.0415466,
6088,0.00610352,0.0415771,
6090,0.0396729,0.0419067,
6092,0.0366211,0.0422302,
6094,0.0878906,0.0427124,
6096,0.00549316,0.0426147,
6098,0.055542,0.042627,
6100,0.0402832,0.042804,
6102,0.043335,0.0428528,
6104,0.0543213,0.0423828,
6106,-0.00915527,0.0424011,
6108,0.0628662,0.0419312,
6110,0.0201416,0.0415466,
6112,0.0164795,0.0416443,
6114,0.0463867,0.0412842,
6116,-0.0524902,0.041803,
6118,0.0787354,0.0419128,
6120,0.0317383,0.0419434,
6122,0.00183105,0.0418396,
6124,0.0817871,0.0421448,
6126,-0.03479,0.0420166,
6128,0.0366211,0.0419189,
6130,0.0494385,0.0421448,
6132,-0.010376,0.0416565,
6134,0.0415039,0.0417664,
6136,0.0354004,0.0417786,
6138,0.0177002,0.0419128,
6140,0.0170898,0.0420532,
6142,0.00793457,0.0417603,
6144,0.0268555,0.0417358,
6146,0.0469971,0.0420837,
6148,0,0.0420837,
6150,0.0128174,0.0420715,
6152,-0.00488281,0.0420593,
6154,0.00427246,0.0414917,
6156,-0.0256348,0.0414795,
6158,0.0317383,0.0407715,
6160,0.00427246,0.0398987,
6162,-0.00305176,0.0398376,
6164,0.0317383,0.0390808,
6166,-0.0341797,0.0389893,
6168,0.0482178,0.0383728,
6170,0.0384521,0.038623,
6172,-0.0500488,0.0389648,
6174,0.0561523,0.0389221,
6176,-0.00305176,0.0388916,
6178,0.0140381,0.0388916,
6180,0.0354004,0.0390564,
6182,-0.0231934,0.0390564,
6184,0.0616455,0.0391602,
6186,0.012207,0.0385864,
6188,-0.0164795,0.0380066,
6190,0.0323486,0.0376709,
6192,0,0.0375366,
6194,0.0531006,0.038031,
6196,0.0250244,0.0376831,
6198,0.0256348,0.037439,
6200,-0.0323486,0.0377014,
6202,0.0189209,0.0378845,
6204,0.0396729,0.0379944,
6206,-0.0305176,0.0380981,
6208,0.0476074,0.0378052,
6210,0.0115967,0.0373413,
6212,-0.0280762,0.0373535,
6214,0.0476074,0.0368713,
6216,-0.0268555,0.0369446,
6218,0.057373,0.0365417,
6220,0.0567627,0.0370178,
6222,-0.0134277,0.0368591,
6224,0.0543213,0.0361267,
6226,0.0170898,0.0361206,
6228,0.0463867,0.0361816,
6230,0.00671387,0.035675,
6232,-0.0250244,0.0359192,
6234,0.0628662,0.0358887,
6236,0.0134277,0.0354736,
6238,-0.0109863,0.0350891,
6240,0.00549316,0.0346863,
6242,0.00488281,0.0342773,
6244,0.0524902,0.0341492,
6246,0.0463867,0.0340088,
6248,-0.0012207,0.0335388,
6250,0.0231934,0.033252,
6252,0.00244141,0.0325195,
6254,0.0384521,0.0323364,
6256,-0.032959,0.0324402,
6258,0.0146484,0.0319336,
6260,-0.000610352,0.0312256,
6262,-0.0445557,0.0312988,
6264,0.022583,0.0305847,
6266,-0.0457764,0.0307495,
6268,0.0372314,0.0302673,
6270,0.0341797,0.0301758,
6272,-0.0354004,0.030304,
6274,0.0567627,0.0301514,
6276,-0.0189209,0.0302917,
6278,0.0170898,0.0304016,
6280,0.022583,0.0304993,
6282,-0.0115967,0.0303589,
6284,0.0506592,0.0302551,
6286,0.00732422,0.0301819,
6288,0.0146484,0.0302673,
6290,0.032959,0.0302002,
6292,-0.0109863,0.0299438,
6294,0.0262451,0.0293274,
6296,0.0305176,0.0295776,
6298,0.0177002,0.0291992,
6300,0.0170898,0.0289673,
6302,-0.00427246,0.0285767,
6304,0.0158691,0.0281921,
6306,-0.0323486,0.0284241,
6308,0.0390625,0.028186,
6310,0.00976563,0.0280823,
6312,-0.0189209,0.0281067,
6314,0.0183105,0.0278259,
6316,-0.0524902,0.0278259,
6318,0.0366211,0.0274048,
6320,0.00366211,0.027124,
6322,-0.0286865,0.0273926,
6324,0.0488281,0.027063,
6326,-0.0177002,0.0268921,
6328,0.0213623,0.0267395,
6330,0.0140381,0.0263855,
6332,-0.0299072,0.0265808,
6334,0.0610352,0.0267761,
6336,0.0238037,0.0266602,
6338,-0.0238037,0.0267212,
6340,0.00366211,0.0265869,
6342,0.0109863,0.0266174,
6344,0.0341797,0.0266907,
6346,-0.032959,0.0265503,
6348,0.0140381,0.0266907,
6350,0.00793457,0.0266418,
6352,-0.00854492,0.0266785,
6354,0.0134277,0.02677,
6356,-0.0384521,0.0268982,
6358,0.0494385,0.0270752,
6360,0.0427246,0.0274597,
6362,-0.0415039,0.0278442,
6364,0.0305176,0.027832,
6366,-0.0311279,0.0278015,
6368,0.0286865,0.0276062,
6370,0.0158691,0.0273804,
6372,-0.0366211,0.0272461,
6374,0.0482178,0.0271667,
6376,-0.0402832,0.0275391,
6378,0.00549316,0.0274536,
6380,0.012207,0.0272217,
6382,-0.0170898,0.0271606,
6384,0.0549316,0.0270935,
6386,0.00671387,0.0270386,
6388,-0.0134277,0.0270081,
6390,0.0195313,0.0268799,
6392,-0.0268555,0.0271484,
6394,0.045166,0.0270691,
6396,-0.00183105,0.0268372,
6398,0.0164795,0.0267456,
6400,-0.00427246,0.0264648,
6402,-0.012207,0.0263977,
6404,0.0274658,0.0262756,
6406,-0.020752,0.026178,
6408,0.0683594,0.0263855,
6410,0.0213623,0.0264832,
6412,-0.032959,0.026532,
6414,0.0469971,0.0265259,
6416,-0.0421143,0.0266785,
6418,0.0427246,0.026532,
6420,-0.00183105,0.0259827,
6422,-0.0488281,0.0263367,
6424,0.0463867,0.0262573,
6426,-0.0299072,0.0263855,
6428,-0.00671387,0.0259888,
6430,0.00427246,0.0259644,
6432,-0.0128174,0.0258423,
6434,0.0415039,0.0256287,
6436,-0.00671387,0.0255615,
6438,-0.0146484,0.0255981,
6440,-0.0012207,0.0255554,
6442,-0.00854492,0.025592,
6444,0.0177002,0.0252441,
6446,0.0128174,0.0249084,
6448,-0.269775,0.027594,
6450,0.0854492,0.0282166,
6452,0.264893,0.0308411,
6454,0.134888,0.0318054,
6456,-0.00671387,0.031543,
6458,-0.0286865,0.0316833,
6460,-0.0836182,0.0325134,
6462,-0.101929,0.0330872,
6464,-0.0140381,0.0330017,
6466,-0.0189209,0.0327332,
6468,0.0189209,0.03255,
6470,0.0482178,0.0326904,
6472,0.00610352,0.0323975,
6474,0.022583,0.0320557,
6476,0.0537109,0.0324036,
6478,-0.0201416,0.0324341,
6480,0.000610352,0.0322144,
6482,0.0146484,0.0322449,
6484,0.00549316,0.0317932,
6486,0.010376,0.0318237,
6488,-0.0360107,0.0320374,
6490,0.00244141,0.0317322,
6492,0.0274658,0.031897,
6494,0.0115967,0.0317505,
6496,0.0134277,0.0315796,
6498,0.0384521,0.0317871,
6500,0.0183105,0.0317993,
6502,0.0012207,0.0317688,
6504,0.0219727,0.0318298,
6506,-0.00732422,0.0315796,
6508,0.022583,0.0314148,
6510,-0.00244141,0.0313416,
6512,-0.0219727,0.0313721,
6514,0.00854492,0.0312744,
6516,-0.0213623,0.0309631,
6518,0.0140381,0.0307373,
6520,0.0311279,0.031012,
6522,-0.0146484,0.0308716,
6524,0.00610352,0.0304443,
6526,0.0286865,0.0305542,
6528,0.0213623,0.0305542,
6530,0.0109863,0.0305237,
6532,-0.0128174,0.0303528,
6534,0.0115967,0.0298584,
6536,0.0183105,0.0298035,
6538,-0.0146484,0.0297119,
6540,-0.00610352,0.0297363,
6542,0.0012207,0.0296387,
6544,-0.00915527,0.0293884,
6546,-0.000610352,0.0290649,
6548,0.0012207,0.0289368,
6550,0.000610352,0.0288635,
6552,0.00427246,0.0288208,
6554,0.0323486,0.02901,
6556,-0.0292969,0.0289185,
6558,0.0360107,0.0287842,
6560,0.0238037,0.028595,
6562,-0.0189209,0.0283691,
6564,0.00732422,0.0281372,
6566,0.0012207,0.0278381,
6568,0.032959,0.0278809,
6570,0.0463867,0.028186,
6572,-0.0396729,0.0282166,
6574,0.0390625,0.028125,
6576,0.00366211,0.0277588,
6578,0.00854492,0.0277893,
6580,0.0164795,0.027832,
6582,-0.00732422,0.0277344,
6584,0.00793457,0.0272644,
6586,0.0128174,0.0273254,
6588,-0.0109863,0.027301,
6590,0.0219727,0.0273254,
6592,0.0354004,0.0274109,
6594,0.0238037,0.0271973,
6596,-0.0341797,0.0275208,
6598,0.0549316,0.0279053,
6600,0.00488281,0.0279114,
6602,-0.0152588,0.0279419,
6604,0.00793457,0.0277466,
6606,-0.0305176,0.0278442,
6608,-0.000610352,0.0271667,
6610,0,0.0269531,
6612,-0.0213623,0.0268372,
6614,0,0.0263672,
6616,0.00488281,0.0259949,
6618,0.0274658,0.0258423,
6620,0.022583,0.0260498,
6622,-0.0231934,0.0257935,
6624,0.0250244,0.0255798,
6626,0.0140381,0.0254211,
6628,0.00366211,0.0253906,
6630,0.0250244,0.0255981,
6632,-0.0195313,0.0256653,
6634,0.0134277,0.0253845,
6636,0.010376,0.0254211,
6638,-0.0177002,0.0254517,
6640,0.032959,0.025769,
6642,0.022583,0.0259094,
6644,-0.0134277,0.0258667,
6646,0.000610352,0.0257446,
6648,0.0317383,0.0233643,
6650,0.00366211,0.0225464,
6652,0.0115967,0.0200134,
6654,0.00488281,0.0187134,
6656,-0.0177002,0.0188232,
6658,0.0292969,0.0188293,
6660,0.0134277,0.0181274,
6662,-0.0146484,0.0172546,
6664,0.0140381,0.0172546,
6666,0.010376,0.0171692,
6668,0.0140381,0.0171204,
6670,0.0109863,0.016748,
6672,-0.0146484,0.0168335,
6674,0.0457764,0.0170654,
6676,0.00732422,0.0166016,
6678,-0.0128174,0.0165283,
6680,0.0354004,0.0168762,
6682,0.00976563,0.0168274,
6684,0.00427246,0.0168152,
6686,0.0280762,0.0169922,
6688,-0.0170898,0.016803,
6690,0.00671387,0.0168457,
6692,0.0195313,0.0167664,
6694,0.010376,0.0167542,
6696,-0.00671387,0.016687,
6698,0.0299072,0.0166016,
6700,0.00671387,0.0164856,
6702,0.00732422,0.0165466,
6704,0.0134277,0.0164612,
6706,-0.0299072,0.016687,
6708,0.0292969,0.0167542,
6710,0.0170898,0.0169006,
6712,-0.032959,0.0170105,
6714,-0.0177002,0.0171021,
6716,-0.0158691,0.0170471,
6718,0.0201416,0.0171082,
6720,0.022583,0.0170227,
6722,-0.0183105,0.0170593,
6724,0.0244141,0.0172424,
6726,0.010376,0.0170593,
6728,-0.0146484,0.0169922,
6730,0.0177002,0.0170593,
6732,0.00427246,0.0169739,
6734,-0.00915527,0.0169495,
6736,0.0128174,0.0168945,
6738,-0.022583,0.0169739,
6740,-0.000610352,0.0169189,
6742,0.0280762,0.0171875,
6744,0.0134277,0.0172302,
6746,-0.00366211,0.0172607,
6748,0.00610352,0.0173096,
6750,0.00549316,0.0173584,
6752,0.0250244,0.0175659,
6754,0.0164795,0.0174072,
6756,-0.0170898,0.0172852,
6758,0.0335693,0.0172607,
6760,0.0244141,0.0172668,
6762,-0.0109863,0.0171875,
6764,0.0323486,0.0174377,
6766,-0.00244141,0.01745,
6768,0.0170898,0.0172913,
6770,0.03479,0.0171753,
6772,-0.0183105,0.0169617,
6774,0.0213623,0.0167847,
6776,0.0158691,0.0169067,
6778,-0.0152588,0.0169739,
6780,0.0140381,0.0169495,
6782,-0.00488281,0.016925,
6784,0.0305176,0.0171509,
6786,-0.00244141,0.0170471,
6788,0.000610352,0.0169434,
6790,0,0.0167236,
6792,0.00488281,0.0164185,
6794,-0.00366211,0.016217,
6796,0.012207,0.0159973,
6798,-0.0164795,0.0156128,
6800,0.00366211,0.0156006,
6802,0.00244141,0.0154724,
6804,0.00183105,0.0154114,
6806,-0.0134277,0.0152405,
6808,0.0250244,0.0154846,
6810,0.0152588,0.0156372,
6812,-0.0158691,0.0155823,
6814,0.0317383,0.0158997,
6816,-0.00671387,0.015918,
6818,0.0231934,0.0158752,
6820,0.0140381,0.0157898,
6822,-0.0366211,0.0159241,
6824,0.0280762,0.0159546,
6826,0.0238037,0.0160522,
6828,-0.0134277,0.0161499,
6830,0.00976563,0.0159973,
6832,0.00488281,0.0158508,
6834,0.00976563,0.0158142,
6836,0.0335693,0.0160461,
6838,-0.0262451,0.0161316,
6840,0.0115967,0.015918,
6842,0.0286865,0.015979,
6844,0,0.0158447,
6846,-0.00976563,0.0159363,
6848,-0.000610352,0.015625,
6850,-0.00427246,0.0156311,
6852,0.0012207,0.0155273,
6854,0.010376,0.0155823,
6856,-0.0146484,0.0155518,
6858,0.0317383,0.0155762,
6860,0.0115967,0.0155579,
6862,-0.0262451,0.0156738,
6864,0.0372314,0.0159058,
6866,-0.0219727,0.0160217,
6868,0.0274658,0.016156,
6870,0.0219727,0.0162659,
6872,-0.0268555,0.0163879,
6874,0.00976563,0.0160278,
6876,0.0177002,0.0161316,
6878,0.00610352,0.0160645,
6880,0.0262451,0.0159729,
6882,-0.0140381,0.0160156,
6884,0.00366211,0.0160095,
6886,0.0183105,0.0159119,
6888,-0.0170898,0.0159119,
6890,0.00305176,0.0158752,
6892,0.0170898,0.0158508,
6894,-0.0305176,0.0160522,
6896,0.00183105,0.0160034,
6898,0.00671387,0.0157715,
6900,0.00183105,0.0157227,
6902,0.020752,0.0158569,
6904,0.0189209,0.0159119,
6906,0.00427246,0.0156555,
6908,0.0274658,0.0156372,
6910,0.0372314,0.0158386,
6912,-0.0299072,0.0158081,
6914,0.0274658,0.0159058,
6916,0.00488281,0.0157959,
6918,0.00366211,0.0156311,
6920,0.0250244,0.0156555,
6922,-0.0561523,0.0160339,
6924,0.0189209,0.015979,
6926,0.010376,0.015979,
6928,-0.0164795,0.0159973,
6930,0.022583,0.0160461,
6932,-0.00976563,0.0161011,
6934,0.0115967,0.0161255,
6936,0.0274658,0.016272,
6938,-0.0170898,0.016217,
6940,0.0128174,0.0163391,
6942,0.0177002,0.0162354,
6944,0.0134277,0.0162354,
6946,0.00427246,0.0162415,
6948,0.00854492,0.0162659,
6950,0.00488281,0.0162598,
6952,0.0341797,0.0163513,
6954,0.0109863,0.0162964,
6956,-0.020752,0.016333,
6958,0.0372314,0.0163696,
6960,0.0109863,0.0162354,
6962,-0.0158691,0.0162842,
6964,0.000610352,0.0159668,
6966,-0.0115967,0.0160583,
6968,0.0109863,0.0159973,
6970,0.0146484,0.0157959,
6972,-0.0262451,0.0158752,
6974,0.0280762,0.0159424,
6976,0.0213623,0.0159973,
6978,0.032959,0.0161743,
6980,-0.0244141,0.0162781,
6982,0.000610352,0.0162354,
6984,0.0286865,0.016217,
6986,0.0109863,0.0163025,
6988,-0.0305176,0.0166016,
6990,-0.00976563,0.0166992,
6992,0.00793457,0.0167297,
6994,0.00732422,0.0167664,
6996,0.00549316,0.0166992,
6998,-0.00488281,0.0165833,
7000,0.0128174,0.0166748,
7002,0.0219727,0.0168701,
7004,0.00915527,0.0169434,
7006,-0.0231934,0.017041,
7008,0.0262451,0.0170532,
7010,0.00793457,0.01698,
7012,-0.0201416,0.0170227,
7014,0.00793457,0.0167847,
7016,0.00366211,0.0167542,
7018,0.0238037,0.0167603,
7020,0.0250244,0.0168701,
7022,-0.0427246,0.0169312,
7024,0.0213623,0.016864,
7026,0.0183105,0.0168091,
7028,-0.00244141,0.0166992,
7030,-0.00488281,0.0166504,
7032,0.00305176,0.0166321,
7034,0.0115967,0.0166504,
7036,0.0152588,0.0164673,
7038,-0.0244141,0.016449,
7040,0.020752,0.0165405,
7042,0.0238037,0.0164917,
7044,0.0140381,0.0166321,
7046,0.010376,0.0166382,
7048,0.000610352,0.0166382,
7050,-0.00549316,0.0166504,
7052,0.0146484,0.0167847,
7054,-0.00183105,0.0166992,
7056,-0.0195313,0.016748,
7058,0.0378418,0.0168091,
7060,0.010376,0.0167969,
7062,-0.0170898,0.0167053,
7064,0.0292969,0.016626,
7066,0.0134277,0.0165405,
7068,0.0305176,0.016571,
7070,0.0012207,0.0163635,
7072,-0.0109863,0.0162048,
7074,0.0195313,0.0163025,
7076,0.0146484,0.016272,
7078,0.0134277,0.0163452,
7080,0.0128174,0.0162109,
7082,-0.0372314,0.0164429,
7084,0.0158691,0.0165649,
7086,0.0250244,0.0166321,
7088,-0.0256348,0.0167175,
7090,-0.00488281,0.0167358,
7092,-0.010376,0.0166687,
7094,-0.00976563,0.0164612,
7096,-0.0140381,0.0165833,
7098,-0.00671387,0.0165833,
7100,0.00488281,0.0166138,
7102,0.00427246,0.016449,
7104,0.00244141,0.0162842,
7106,0.00427246,0.0162842,
7108,0.0366211,0.0163757,
7110,0.0274658,0.0162781,
7112,-0.0164795,0.0161438,
7114,0.00366211,0.0159058,
7116,0.00854492,0.0159424,
7118,0.022583,0.0161316,
7120,0.0280762,0.0161621,
7122,-0.0396729,0.0159973,
7124,0.010376,0.0159119,
7126,0.0189209,0.0159973,
7128,-0.00366211,0.0158691,
7130,-0.00732422,0.0157166,
7132,0.0238037,0.0158569,
7134,0.00305176,0.0157715,
7136,0.022583,0.0157227,
7138,-0.032959,0.0158813,
7140,0.00854492,0.0158386,
7142,0.0189209,0.0158508,
7144,0.0152588,0.0158691,
7146,0.00671387,0.0158936,
7148,0.00976563,0.0159058,
7150,0.00732422,0.0159302,
7152,0.0152588,0.015741,
7154,0.0201416,0.0158325,
7156,-0.0238037,0.015863,
7158,0.0183105,0.0156738,
7160,0.0292969,0.0158569,
7162,-0.0268555,0.0159668,
7164,0.0274658,0.0162354,
7166,-0.0128174,0.0162476,
7168,-0.00549316,0.0161926,
7170,0.0170898,0.016217,
7172,-0.0134277,0.0160889,
7174,0.0152588,0.0159607,
7176,0.00244141,0.0157715,
7178,-0.0134277,0.0155762,
7180,0.00671387,0.0153992,
7182,-0.00671387,0.0154602,
7184,0.00610352,0.0152344,
7186,0.0402832,0.0155273,
7188,-0.0299072,0.0155212,
7190,0.0115967,0.0155396,
7192,0.000610352,0.0154663,
7194,0.0262451,0.0156555,
7196,-0.0146484,0.0157471,
7198,-0.00793457,0.0157776,
7200,0.0115967,0.0157654,
7202,0.0177002,0.0157227,
7204,-0.0012207,0.0156433,
7206,-0.0250244,0.0156616,
7208,0.0286865,0.015686,
7210,0.00854492,0.0156921,
7212,-0.0189209,0.0156799,
7214,0.0146484,0.0157471,
7216,-0.00244141,0.0157349,
7218,0.0140381,0.0156372,
7220,0.0177002,0.015564,
7222,-0.022583,0.0153625,
7224,0.0384521,0.0155334,
7226,0.00915527,0.0154419,
7228,-0.00610352,0.0154785,
7230,0.0231934,0.0156616,
7232,-0.00427246,0.0156738,
7234,0.0183105,0.015741,
7236,0.0146484,0.0157349,
7238,-0.0238037,0.0157288,
7240,0.00244141,0.0155457,
7242,0.0213623,0.0155212,
7244,-0.00305176,0.0154114,
7246,0.00793457,0.015387,
7248,-0.00610352,0.0154419,
7250,-0.00244141,0.0154114,
7252,0.00915527,0.0153564,
7254,0.0115967,0.0154541,
7256,-0.00854492,0.0153442,
7258,0.0262451,0.0152283,
7260,0.0231934,0.0153564,
7262,-0.0195313,0.0153809,
7264,0.0354004,0.0154419,
7266,-0.00793457,0.015387,
7268,0.0201416,0.0152832,
7270,0,0.015271,
7272,-0.0292969,0.0154541,
7274,0.022583,0.0154846,
7276,0.00427246,0.0153809,
7278,-0.0152588,0.0153992,
7280,-0.00488281,0.0153198,
7282,-0.00671387,0.0150146,
7284,0.0140381,0.0149963,
7286,0.0152588,0.0148987,
7288,-0.0170898,0.0148132,
7290,0.00305176,0.0147949,
7292,0.000610352,0.0146973,
7294,0.0238037,0.0148376,
7296,-0.00427246,0.01474,
7298,-0.0012207,0.0146851,
7300,0.00488281,0.0146851,
7302,0.0134277,0.0147766,
7304,0.00427246,0.0147949,
7306,-0.0170898,0.0149231,
7308,0.0360107,0.014917,
7310,0.0201416,0.0148437,
7312,-0.0213623,0.0148926,
7314,0.0372314,0.0152283,
7316,-0.0140381,0.0152832,
7318,0.0195313,0.0152527,
7320,0.0280762,0.0152527,
7322,-0.0238037,0.015094,
7324,0.012207,0.0151123,
7326,0.00732422,0.0149963,
7328,-0.00915527,0.0150513,
7330,0.0158691,0.0151367,
7332,0.00366211,0.0149353,
7334,0.0189209,0.015094,
7336,0.0152588,0.0150208,
7338,-0.022583,0.014917,
7340,0.00549316,0.0148865,
7342,0.0164795,0.0148621,
7344,0.00854492,0.0147949,
7346,-0.00976563,0.0148254,
7348,0.00183105,0.0147461,
7350,0.010376,0.0147766,
7352,0.0177002,0.014801,
7354,-0.00854492,0.0146851,
7356,-0.00427246,0.0144897,
7358,0.0299072,0.0146057,
7360,0.00793457,0.0143921,
7362,-0.0238037,0.0143616,
7364,0.0134277,0.0142212,
7366,-0.00915527,0.0141846,
7368,0.0183105,0.0143127,
7370,0.0335693,0.0144775,
7372,-0.0213623,0.0145569,
7374,0.0146484,0.0145508,
7376,0.0219727,0.0147461,
7378,0.00305176,0.0146423,
7380,0.0152588,0.0147278,
7382,-0.00671387,0.0147278,
7384,0.00427246,0.0147095,
7386,0.012207,0.0144287,
7388,-0.0262451,0.0143921,
7390,0.00427246,0.0143188,
7392,0.0244141,0.0145569,
7394,0.0164795,0.0144592,
7396,-0.00854492,0.0143982,
7398,0.012207,0.0144409,
7400,0.00183105,0.0143433,
7402,0.0183105,0.0143494,
7404,0.00671387,0.0144043,
7406,-0.022583,0.0143799,
7408,0.00732422,0.0141663,
7410,0.012207,0.0142029,
7412,-0.0244141,0.0142578,
7414,0.00305176,0.0141418,
7416,-0.0109863,0.0142273,
7418,0.00854492,0.0141724,
7420,0.0195313,0.0141907,
7422,-0.0292969,0.0142578,
7424,0.0262451,0.0141357,
7426,0.00610352,0.0141052,
7428,-0.010376,0.0141479,
7430,0.0158691,0.0140747,
7432,-0.00244141,0.0140564,
7434,0.00854492,0.0139587,
7436,0.0219727,0.014032,
7438,-0.00915527,0.0138855,
7440,0.0134277,0.0139954,
7442,0.0354004,0.0141357,
7444,0.0189209,0.0142944,
7446,0.0115967,0.0143311,
7448,0.0158691,0.0144287,
7450,0.0305176,0.0147095,
7452,-0.00427246,0.0146606,
7454,0.0115967,0.0146606,
7456,-0.022583,0.014801,
7458,0.0250244,0.0147888,
7460,0.0427246,0.0149841,
7462,-0.0012207,0.014801,
7464,0.0323486,0.0147705,
7466,-0.0335693,0.0150269,
7468,0.0250244,0.0150757,
7470,0.0189209,0.0152649,
7472,-0.0268555,0.0152405,
7474,-0.00183105,0.015033,
7476,-0.0195313,0.0151855,
7478,-0.0177002,0.01521,
7480,-0.0280762,0.0154419,
7482,-0.00610352,0.0154358,
7484,-0.00183105,0.0153137,
7486,0.0140381,0.0153015,
7488,-0.0280762,0.0154114,
7490,-0.000610352,0.015387,
7492,0.0170898,0.0155518,
7494,0.00366211,0.0153503,
7496,-0.00915527,0.0153992,
7498,-0.00366211,0.0154236,
7500,-0.00610352,0.0154358,
7502,0.0195313,0.0154968,
7504,0.00488281,0.0155029,
7506,-0.0140381,0.0154724,
7508,0.0244141,0.0153564,
7510,0.0128174,0.0152832,
7512,-0.0189209,0.0152588,
7514,0.0183105,0.0150696,
7516,-0.0134277,0.0150635,
7518,0.0256348,0.0151245,
7520,0.0286865,0.0151306,
7522,-0.0323486,0.0152161,
7524,0.0238037,0.015332,
7526,0.00976563,0.0153564,
7528,-0.00854492,0.0153503,
7530,0.0128174,0.0153198,
7532,-0.0109863,0.0153931,
7534,0.00671387,0.015271,
7536,0.03479,0.0154663,
7538,-0.0274658,0.0155151,
7540,0.00793457,0.0155396,
7542,0.0305176,0.0156799,
7544,-0.00549316,0.0156494,
7546,0.0115967,0.0156677,
7548,0.0152588,0.015802,
7550,0.0128174,0.0158264,
7552,0.0238037,0.0158875,
7554,0.020752,0.0160095,
7556,-0.0219727,0.0161865,
7558,0.0463867,0.0163513,
7560,0.0286865,0.0165588,
7562,-0.0250244,0.016571,
7564,0.0195313,0.0166321,
7566,-0.0152588,0.0166931,
7568,0.0158691,0.0166687,
7570,0.00732422,0.0164063,
7572,-0.0335693,0.0165283,
7574,0.00915527,0.0164734,
7576,-0.00732422,0.0163269,
7578,-0.022583,0.0165222,
7580,0.00976563,0.0164673,
7582,-0.00488281,0.016449,
7584,0.00244141,0.0164307,
7586,0.0134277,0.0164429,
7588,-0.0146484,0.0163269,
7590,0.0146484,0.0164307,
7592,0.00366211,0.0162231,
7594,0.0109863,0.0161682,
7596,-0.00366211,0.0161194,
7598,0.00549316,0.0160522,
7600,-0.00488281,0.0160828,
7602,0.010376,0.0160034,
7604,0,0.0159363,
7606,-0.0219727,0.0159302,
7608,0.0244141,0.0161011,
7610,0.0189209,0.0161682,
7612,-0.0195313,0.0161194,
7614,0.0335693,0.0164246,
7616,-0.00671387,0.0163818,
7618,0.022583,0.0165222,
7620,0.0323486,0.0166504,
7622,-0.0231934,0.0165894,
7624,0.0238037,0.0165649,
7626,0.0146484,0.0166504,
7628,-0.0250244,0.0167969,
7630,0.00793457,0.0167175,
7632,0.00183105,0.0167114,
7634,0.0128174,0.0167542,
7636,0.0286865,0.0168213,
7638,-0.0292969,0.0170227,
7640,-0.00244141,0.0169128,
7642,0.0189209,0.016748,
7644,0.0262451,0.0168213,
7646,-0.00976563,0.016803,
7648,0.00183105,0.0166626,
7650,-0.00488281,0.0164063,
7652,0.00671387,0.0164307,
7654,0.00610352,0.0163757,
7656,-0.0012207,0.0161621,
7658,0.0256348,0.0161682,
7660,0.0317383,0.0160583,
7662,-0.0158691,0.0162048,
7664,0.00671387,0.0159485,
7666,0.010376,0.0157166,
7668,0.0177002,0.0156433,
7670,0.00549316,0.015509,
7672,-0.045166,0.0156921,
7674,0.0146484,0.0158203,
7676,-0.00732422,0.0156982,
7678,-0.0244141,0.0157654,
7680,0.00305176,0.0155151,
7682,-0.00976563,0.0155518,
7684,0.0195313,0.0157288,
7686,0.0262451,0.0158508,
7688,-0.0250244,0.0158203,
7690,-0.00732422,0.0158875,
7692,0.0244141,0.0159607,
7694,0.0140381,0.0160645,
7696,-0.00549316,0.0160278,
7698,-0.000610352,0.0159973,
7700,-0.0115967,0.0160522,
7702,0,0.0158569,
7704,-0.00793457,0.0158875,
7706,-0.0170898,0.015918,
7708,0.0280762,0.0159546,
7710,0.00854492,0.0159119,
7712,-0.0292969,0.0160156,
7714,0.0195313,0.0160278,
7716,0.000610352,0.0158997,
7718,0.0189209,0.0158325,
7720,0.0244141,0.0157898,
7722,-0.0274658,0.015741,
7724,0.0305176,0.0158081,
7726,0.00793457,0.0157898,
7728,-0.00549316,0.0157593,
7730,0.0256348,0.0158875,
7732,0.00183105,0.0157959,
7734,0.0238037,0.0159668,
7736,0.0195313,0.0158142,
7738,-0.0115967,0.0156555,
7740,0.0305176,0.0158813,
7742,0.0189209,0.0157654,
7744,0.000610352,0.0157166,
7746,-0.0152588,0.0157532,
7748,0.00915527,0.0156921,
7750,0,0.015564,
7752,-0.00183105,0.0153442,
7754,-0.00183105,0.015155,
7756,-0.0146484,0.0150818,
7758,0.0134277,0.0147522,
7760,0.0177002,0.0146423,
7762,-0.0158691,0.0145508,
7764,0.0195313,0.0145508,
7766,-0.00976563,0.0144958,
7768,0.0384521,0.0147217,
7770,0.0427246,0.0150757,
7772,-0.0561523,0.0153015,
7774,0.0476074,0.015686,
7776,-0.00671387,0.0156799,
7778,0.00366211,0.0154907,
7780,0.00366211,0.0154297,
7782,-0.0170898,0.0155518,
7784,-0.00793457,0.0156067,
7786,-0.00549316,0.0155273,
7788,-0.0390625,0.0157715,
7790,0.0189209,0.0158142,
7792,0.0012207,0.0157898,
7794,-0.00549316,0.0157349,
7796,-0.00244141,0.0157227,
7798,0.0152588,0.0158203,
7800,0.00427246,0.0158142,
7802,0.022583,0.0159363,
7804,-0.00427246,0.015979,
7806,-0.0140381,0.0158997,
7808,0.0274658,0.0159302,
7810,0.0183105,0.0159241,
7812,-0.0177002,0.0159058,
7814,0.0177002,0.0157471,
7816,-0.000610352,0.015686,
7818,0.0189209,0.0156494,
7820,0.0512695,0.0158386,
7822,-0.0134277,0.015741,
7824,0.0354004,0.0158569,
7826,0.0201416,0.0159119,
7828,-0.020752,0.0158691,
7830,0.022583,0.0160156,
7832,0,0.0159973,
7834,-0.00305176,0.0158997,
7836,0.00183105,0.0156311,
7838,-0.043335,0.0157715,
7840,-0.0201416,0.0159485,
7842,0.020752,0.0159668,
7844,0.010376,0.0158081,
7846,-0.00366211,0.0157471,
7848,0.00488281,0.0157776,
7850,0.00671387,0.0157959,
7852,0.0244141,0.0159729,
7854,0.0195313,0.0161072,
7856,-0.00732422,0.0161682,
7858,0.0195313,0.0161072,
7860,0.0158691,0.0159485,
7862,-0.0219727,0.0160095,
7864,0.0134277,0.0160767,
7866,-0.0128174,0.0161011,
7868,0.00854492,0.0160095,
7870,0.0201416,0.016156,
7872,-0.0274658,0.015979,
7874,0.0292969,0.0161255,
7876,0.0250244,0.0163025,
7878,0.010376,0.0161621,
7880,0.0286865,0.0164185,
7882,-0.0292969,0.0166138,
7884,0.0177002,0.0165955,
7886,0.0286865,0.0166199,
7888,-0.0231934,0.0166016,
7890,0.00366211,0.0165649,
7892,-0.0128174,0.016449,
7894,0.00305176,0.0163391,
7896,-0.00244141,0.0163086,
7898,0.00610352,0.0163635,
7900,0.0164795,0.0164124,
7902,0.00732422,0.0164856,
7904,-0.000610352,0.0164124,
7906,0.0012207,0.0162537,
7908,0.0250244,0.0162231,
7910,0.00488281,0.0161865,
7912,0.00244141,0.015918,
7914,0.010376,0.0158264,
7916,-0.00854492,0.0159058,
7918,-0.00610352,0.0157776,
7920,0.0463867,0.0159973,
7922,-0.0231934,0.0159546,
7924,0.00915527,0.015741,
7926,0.012207,0.0157837,
7928,0.000610352,0.0157349,
7930,0.0231934,0.0157104,
7932,-0.00915527,0.0157837,
7934,0.012207,0.0156677,
7936,0.0146484,0.0156189,
7938,-0.0384521,0.0158875,
7940,0.0109863,0.0156921,
7942,0.0244141,0.0157471,
7944,0.0012207,0.0157532,
7946,-0.0134277,0.0157349,
7948,0.00610352,0.0157043,
7950,0.00793457,0.0157837,
7952,0.0183105,0.0159485,
7954,-0.00488281,0.015979,
7956,-0.0189209,0.0160217,
7958,0.0292969,0.0161804,
7960,0.0146484,0.0161499,
7962,-0.020752,0.0161987,
7964,0.022583,0.0162292,
7966,0.00305176,0.0161621,
7968,0.0268555,0.0160461,
7970,0.0268555,0.0158875,
7972,-0.0201416,0.0155273,
7974,0.0311279,0.0153625,
7976,0.0183105,0.0154785,
7978,-0.0115967,0.0155579,
7980,0.0189209,0.0157104,
7982,-0.020752,0.0157471,
7984,0.00915527,0.0157593,
7986,0.0134277,0.0158386,
7988,-0.0256348,0.0157043,
7990,0.00427246,0.0155579,
7992,0.0109863,0.0156555,
7994,0.00488281,0.0156494,
7996,-0.00610352,0.015686,
7998,0.00793457,0.0156128,
8000,0.00488281,0.0156189,
8002,0.0109863,0.0155029,
8004,0.00427246,0.0155029,
8006,-0.00854492,0.015448,
8008,0.0195313,0.0153687,
8010,0.0164795,0.0153503,
8012,-0.0152588,0.0153259,
8014,0.020752,0.0153564,
8016,-0.000610352,0.0153564,
8018,0.0213623,0.0153809,
8020,0.0354004,0.0152222,
8022,-0.0305176,0.0153931,
8024,0.022583,0.0152649,
8026,-0.00183105,0.0150818,
8028,-0.0268555,0.0151428,
8030,0.0341797,0.0152588,
8032,-0.0177002,0.0154358,
8034,-0.00366211,0.0154419,
8036,0.0134277,0.0155579,
8038,-0.0366211,0.0154907,
8040,0.0177002,0.0154663,
8042,0.0250244,0.015509,
8044,0.00488281,0.0154541,
8046,0.00427246,0.0154602,
8048,0.0128174,0.0155396,
8050,0.00183105,0.0154907,
8052,0.010376,0.0153503,
8054,0.0274658,0.0154297,
8056,-0.00366211,0.0153931,
8058,0.0256348,0.0154541,
8060,0.00549316,0.0153503,
8062,-0.0158691,0.0152893,
8064,0.0164795,0.0153198,
8066,-0.0146484,0.0153381,
8068,0.0238037,0.0154907,
8070,0.0201416,0.0154907,
8072,-0.0408936,0.015625,
8074,0.03479,0.0156799,
8076,-0.00305176,0.0154602,
8078,-0.0201416,0.0155579,
8080,0.0311279,0.0155823,
8082,0.00610352,0.0153503,
8084,-0.00732422,0.0152466,
8086,0.00183105,0.014978,
8088,-0.0183105,0.0149292,
8090,0.0109863,0.0150024,
8092,0.012207,0.0149963,
8094,0.00488281,0.0150146,
8096,-0.00610352,0.0150513,
8098,0.0109863,0.0151001,
8100,-0.000610352,0.0149414,
8102,0.0201416,0.0150696,
8104,0.00976563,0.0151611,
8106,-0.0201416,0.0153503,
8108,0.0238037,0.0153381,
8110,0.0170898,0.0154602,
8112,-0.0262451,0.0156982,
8114,0.03479,0.0159424,
8116,-0.00854492,0.0159424,
8118,-0.0109863,0.0159912,
8120,0.0384521,0.0159119,
8122,-0.00854492,0.0157654,
8124,0.0219727,0.0158936,
8126,-0.00549316,0.0158264,
8128,0.0115967,0.0159363,
8130,0.00244141,0.0157288,
8132,-0.00549316,0.0156921,
8134,0.00793457,0.0156494,
8136,0.00976563,0.0156006,
8138,-0.0250244,0.0154663,
8140,0.00366211,0.0153931,
8142,0.0280762,0.0154297,
8144,0.0146484,0.015564,
8146,0.0238037,0.0156677,
8148,-0.0421143,0.0160278,
8150,0.0195313,0.0161438,
8152,0.0195313,0.016156,
8154,0.00549316,0.0161621,
8156,-0.0244141,0.016217,
8158,-0.00488281,0.0159729,
8160,0.00305176,0.0158569,
8162,-0.0128174,0.0157776,
8164,0.0177002,0.0157288,
8166,-0.0128174,0.0158264,
8168,0.0140381,0.0156982,
8170,0.0305176,0.0157349,
8172,-0.00732422,0.0156067,
8174,0.0390625,0.015686,
8176,0.0164795,0.0156677,
8178,-0.000610352,0.0155579,
8180,-0.00183105,0.015387,
8182,0.012207,0.0153015,
8184,0.0164795,0.0153748,
8186,0.00976563,0.0153381,
8188,-0.0402832,0.0154846,
8190,0.020752,0.0156494,
8192,0.00915527,0.0156311,
8194,-0.00610352,0.0156433,
8196,0,0.0155823,
8198,0.0250244,0.0157532,
8200,0.00183105,0.0157227,
8202,0.0170898,0.0157837,
8204,0.0115967,0.0158569,
8206,-0.010376,0.0158752,
8208,0.0177002,0.0158569,
8210,0.00976563,0.0157898,
8212,-0.00976563,0.0157349,
8214,0.0195313,0.0157227,
8216,-0.00305176,0.0157471,
8218,-0.00366211,0.0155701,
8220,0.0164795,0.0153809,
8222,-0.0311279,0.015387,
8224,0.022583,0.015387,
8226,0.00549316,0.0154236,
8228,-0.0140381,0.0152954,
8230,0.012207,0.0150757,
8232,-0.00427246,0.0149414,
8234,0.00366211,0.0149414,
8236,0.022583,0.015033,
8238,-0.00671387,0.0147339,
8240,0.012207,0.014679,
8242,0.0170898,0.0145996,
8244,0.0134277,0.0146851,
8246,-0.00427246,0.0146851,
8248,0.022583,0.0147827,
8250,0.0189209,0.0149536,
8252,0.0115967,0.0149658,
8254,-0.00610352,0.0147522,
8256,-0.0231934,0.0149475,
8258,0.0305176,0.0149963,
8260,-0.0012207,0.0149536,
8262,-0.0280762,0.0150757,
8264,0.0115967,0.0150269,
8266,-0.0170898,0.0150513,
8268,0.00915527,0.0149048,
8270,0.0292969,0.0149963,
8272,-0.0286865,0.0148743,
8274,0.0280762,0.0148071,
8276,0.0341797,0.0151184,
8278,-0.0256348,0.0151733,
8280,0.0140381,0.0150024,
8282,0.00549316,0.0149963,
8284,0.0317383,0.0152405,
8286,0.0152588,0.0153748,
8288,-0.0366211,0.0155579,
8290,0.00732422,0.0155212,
8292,0.0115967,0.0155151,
8294,0.00732422,0.0155396,
8296,-0.0012207,0.0154907,
8298,-0.00732422,0.0154541,
8300,-0.00732422,0.0155212,
8302,0.0152588,0.0154724,
8304,0.0012207,0.015387,
8306,-0.00732422,0.0152588,
8308,0.0250244,0.015271,
8310,0.0152588,0.0152527,
8312,-0.00976563,0.0150879,
8314,0.00976563,0.0148376,
8316,-0.00610352,0.0148132,
8318,0.00488281,0.0147522,
8320,0.0219727,0.0145874,
8322,-0.0311279,0.0148132,
8324,0.0268555,0.0148621,
8326,0.0134277,0.0149414,
8328,-0.0244141,0.0150696,
8330,0.00732422,0.0151184,
8332,0.00488281,0.0151123,
8334,0.0238037,0.015271,
8336,0.00366211,0.01521,
8338,-0.022583,0.0151855,
8340,-0.010376,0.0152527,
8342,0.0146484,0.0151184,
8344,0.0152588,0.0151245,
8346,0.00183105,0.0149048,
8348,0.00793457,0.014563,
8350,-0.00488281,0.0144165,
8352,0.0219727,0.0144409,
8354,0.00976563,0.0144836,
8356,0,0.0142395,
8358,0.0177002,0.0143677,
8360,0.00488281,0.014386,
8362,-0.0213623,0.0144714,
8364,0.010376,0.0143982,
8366,-0.0109863,0.0143799,
8368,0.00549316,0.0142944,
8370,0.0012207,0.0140015,
8372,-0.0360107,0.0142883,
8374,0.0164795,0.0140625,
8376,0.00610352,0.0139587,
8378,-0.00976563,0.0140503,
8380,0.00488281,0.0140808,
8382,-0.00244141,0.0139832,
8384,0.00671387,0.0138855,
8386,0.022583,0.0140137,
8388,-0.00671387,0.013678,
8390,-0.000610352,0.0134766,
8392,0.00915527,0.0134766,
8394,0.0134277,0.0135498,
8396,0.00671387,0.0136169,
8398,0.00732422,0.0134399,
8400,-0.00366211,0.0134583,
8402,0.000610352,0.0132935,
8404,-0.000610352,0.0131836,
8406,-0.00671387,0.013147,
8408,0.0262451,0.0132324,
8410,-0.00854492,0.0132202,
8412,-0.0201416,0.013324,
8414,0.020752,0.0133362,
8416,0.00305176,0.0133362,
8418,0.0219727,0.0135193,
8420,0.0268555,0.013623,
8422,-0.0463867,0.0137756,
8424,0.0286865,0.0138367,
8426,0.00915527,0.0138733,
8428,0.00183105,0.0137512,
8430,0.000610352,0.0136353,
8432,-0.00183105,0.0136108,
8434,0.000610352,0.0135803,
8436,0.0177002,0.0135315,
8438,-0.0140381,0.0136047,
8440,0.00671387,0.0135498,
8442,0.0250244,0.0136292,
8444,0.0134277,0.0136292,
8446,-0.0256348,0.0138428,
8448,0.00854492,0.0137024,
8450,-0.00305176,0.0135437,
8452,0.0128174,0.0135559,
8454,0.000610352,0.013501,
8456,-0.0244141,0.0135132,
8458,0.00976563,0.0133057,
8460,0.0292969,0.0135864,
8462,-0.0256348,0.013562,
8464,0.0134277,0.0135803,
8466,0.00915527,0.013501,
8468,-0.0128174,0.0135376,
8470,0.0256348,0.013501,
8472,-0.0262451,0.0134766,
8474,0.0299072,0.0134949,
8476,0.00793457,0.0132324,
8478,0.00244141,0.0130005,
8480,0.0201416,0.0130615,
8482,0.00915527,0.0130981,
8484,0.00427246,0.0128235,
8486,0.0195313,0.0128662,
8488,-0.000610352,0.0125061,
8490,-0.0012207,0.0124451,
8492,0.0012207,0.0123413,
8494,0,0.0122681,
8496,-0.00915527,0.0123474,
8498,0.0012207,0.0122864,
8500,-0.00244141,0.0122375,
8502,0.0170898,0.0122559,
8504,0.00427246,0.0122864,
8506,-0.0280762,0.0124939,
8508,0.0360107,0.0126038,
8510,0.0128174,0.0125793,
8512,-0.0195313,0.012677,
8514,0.0158691,0.012738,
8516,0.00488281,0.0127258,
8518,0.0170898,0.0128479,
8520,0.0195313,0.0128235,
8522,-0.0256348,0.0127686,
8524,0.0268555,0.0127686,
8526,0.0146484,0.0127808,
8528,-0.0115967,0.0126526,
8530,0.00427246,0.0126221,
8532,-0.00549316,0.0126282,
8534,0.00732422,0.0124634,
8536,0.0140381,0.0125671,
8538,-0.0244141,0.0125854,
8540,0.0146484,0.0126282,
8542,0.0170898,0.0126526,
8544,0.010376,0.0126038,
8546,0.00732422,0.0126587,
8548,0.00488281,0.0126282,
8550,0.00366211,0.012616,
8552,0.0183105,0.0125793,
8554,0.0128174,0.0126099,
8556,-0.0115967,0.0127258,
8558,0.0256348,0.0128052,
8560,0.0170898,0.0129272,
8562,-0.0286865,0.0130005,
8564,0.0408936,0.0133057,
8566,-0.00976563,0.0132935,
8568,0.0146484,0.013385,
8570,0.0268555,0.0136414,
8572,-0.0189209,0.0134705,
8574,0.0177002,0.0134827,
8576,0.00793457,0.013501,
8578,-0.00305176,0.0134338,
8580,0.0146484,0.0135315,
8582,-0.0128174,0.0136353,
8584,0.0231934,0.0138,
8586,-0.00366211,0.0136108,
8588,-0.0109863,0.0136536,
8590,0.020752,0.013855,
8592,0.00671387,0.0138306,
8594,0.0140381,0.0138367,
8596,0.022583,0.0139954,
8598,0.0244141,0.0141663,
8600,-0.00793457,0.014209,
8602,0.00366211,0.0142395,
8604,0.0274658,0.0145081,
8606,-0.0128174,0.0145691,
8608,0.0268555,0.0145752,
8610,-0.00366211,0.0145264,
8612,-0.0366211,0.0146912,
8614,0.00183105,0.014502,
8616,-0.00976563,0.0145691,
8618,0.00488281,0.0143982,
8620,0.00793457,0.014209,
8622,-0.0415039,0.0141602,
8624,0.0384521,0.0142578,
8626,0.0164795,0.0143311,
8628,-0.0134277,0.014447,
8630,0.012207,0.014563,
8632,-0.00488281,0.0145935,
8634,0.0183105,0.0147705,
8636,0.0134277,0.0147278,
8638,-0.0396729,0.0149841,
8640,-0.00427246,0.0149597,
8642,0.00671387,0.0147766,
8644,0,0.0146423,
8646,0.00244141,0.0144104,
8648,0.000610352,0.0143311,
8650,-0.00793457,0.0143799,
8652,0.0109863,0.0143616,
8654,0.00854492,0.0144409,
8656,-0.0170898,0.0143677,
8658,0.0244141,0.0145142,
8660,0.00793457,0.0143005,
8662,-0.0305176,0.0143494,
8664,0.0280762,0.0144958,
8666,-0.0115967,0.0145203,
8668,0.0158691,0.0145508,
8670,0.0250244,0.0145447,
8672,-0.022583,0.0145081,
8674,0.0292969,0.014502,
8676,0.022583,0.0146484,
8678,-0.0134277,0.0147583,
8680,0.0164795,0.0147217,
8682,0.00793457,0.0147095,
8684,0.00610352,0.0147278,
8686,0.0238037,0.0147705,
8688,-0.0164795,0.0149292,
8690,0.012207,0.0150391,
8692,0.0231934,0.0152588,
8694,0.00671387,0.0153259,
8696,0.0244141,0.0154785,
8698,-0.00183105,0.0154846,
8700,0.0109863,0.0155701,
8702,0.0140381,0.0155396,
8704,0,0.0154968,
8706,-0.00976563,0.0153137,
8708,0.00671387,0.0150208,
8710,-0.010376,0.0149963,
8712,-0.020752,0.0150085,
8714,0.000610352,0.014856,
8716,-0.00427246,0.0148499,
8718,0.022583,0.0149048,
8720,0.0286865,0.0149963,
8722,-0.0354004,0.015094,
8724,0.0250244,0.0150757,
8726,0.0189209,0.0151184,
8728,0.010376,0.0151062,
8730,0.0152588,0.0152161,
8732,-0.000610352,0.0151672,
8734,0.00244141,0.0151184,
8736,0.0115967,0.015094,
8738,-0.0250244,0.0151001,
8740,0.0128174,0.0150818,
8742,0.0140381,0.0150513,
8744,0.0109863,0.0150574,
8746,0,0.0149841,
8748,0.00549316,0.0149902,
8750,0.00244141,0.014978,
8752,0.0109863,0.0149048,
8754,0.0170898,0.0149475,
8756,-0.00915527,0.0149231,
8758,0.0213623,0.0148804,
8760,0.0244141,0.0149536,
8762,-0.0262451,0.0149292,
8764,0.0140381,0.0146606,
8766,0.00549316,0.0146179,
8768,0.0170898,0.0146423,
8770,0.0274658,0.0146484,
8772,-0.0250244,0.0147095,
8774,0.0183105,0.0147156,
8776,0.0183105,0.0148193,
8778,0.00183105,0.0148071,
8780,0.0128174,0.0147888,
8782,0.0134277,0.0147949,
8784,0.0177002,0.01474,
8786,0.0250244,0.0149536,
8788,-0.0183105,0.0150269,
8790,0.00793457,0.0148987,
8792,0.00793457,0.0149109,
8794,0.0158691,0.0149292,
8796,-0.0140381,0.0148437,
8798,-0.0012207,0.0146118,
8800,0.0012207,0.0145447,
8802,-0.00549316,0.014563,
8804,0.00488281,0.0143372,
8806,-0.0012207,0.0142212,
