Felipe_B-L01
Gráfico creado el:2026-06-10 18:41:40.426
Registro en:2026-06-10 18:42:18.028
2 mseg/muestras
2 canales
EMG
mV
EMG Integrado
mV-sec
milliSec,CH1,CH40,
,261384 samples,261384 samples,
0,0.0134277,0.000134277,
2,-0.0256348,0.000390625,
4,0.020752,0.000598145,
6,0.00488281,0.000646973,
8,-0.00915527,0.000738525,
10,-0.0012207,0.000750732,
12,-0.0115967,0.000866699,
14,0.00915527,0.000958252,
16,0.0195313,0.00115356,
18,-0.0170898,0.00132446,
20,0.00610352,0.0013855,
22,0.0201416,0.00158691,
24,-0.000610352,0.00159302,
26,0.0152588,0.00174561,
28,0.00366211,0.00178223,
30,0.00427246,0.00182495,
32,0.020752,0.00203247,
34,-0.00244141,0.00205688,
36,-0.0012207,0.00206909,
38,0.00366211,0.00210571,
40,0.0109863,0.00221558,
42,-0.00366211,0.0022522,
44,0.0134277,0.00238647,
46,-0.0128174,0.00251465,
48,0.00610352,0.00257568,
50,0.0231934,0.00280762,
52,-0.0189209,0.00299683,
54,0.0262451,0.00325928,
56,0.0195313,0.00345459,
58,-0.0177002,0.00363159,
60,0.0109863,0.00374146,
62,0.0109863,0.00385132,
64,0.00305176,0.00388184,
66,0.032959,0.00421143,
68,-0.0366211,0.00457764,
70,-0.000610352,0.00458374,
72,0.0128174,0.00471191,
74,-0.00732422,0.00478516,
76,0.00183105,0.00480347,
78,-0.00244141,0.00482788,
80,-0.00671387,0.00489502,
82,0.0140381,0.0050354,
84,-0.00366211,0.00507202,
86,0,0.00507202,
88,0.00976563,0.00516968,
90,-0.0109863,0.00527954,
92,0.00305176,0.00531006,
94,0.0201416,0.00551147,
96,-0.00244141,0.00553589,
98,0.0152588,0.00568848,
100,-0.00427246,0.0057312,
102,-0.0268555,0.00599976,
104,0.0274658,0.00627441,
106,0.0195313,0.00646973,
108,-0.022583,0.00669556,
110,0.00976563,0.00679321,
112,-0.0231934,0.00702515,
114,0.00549316,0.00708008,
116,0.0219727,0.0072998,
118,-0.0244141,0.00754395,
120,0.0158691,0.00770264,
122,0.00549316,0.00775757,
124,0.0134277,0.00789185,
126,0.00244141,0.00791626,
128,0.00549316,0.00797119,
130,0,0.00797119,
132,0.0238037,0.00820923,
134,-0.0140381,0.00834961,
136,-0.00793457,0.00842896,
138,0.0177002,0.00860596,
140,0.00549316,0.00866089,
142,-0.0170898,0.00883179,
144,0.0109863,0.00894165,
146,-0.0140381,0.00908203,
148,0.0280762,0.00936279,
150,0.0177002,0.00953979,
152,-0.0146484,0.00968628,
154,0.0286865,0.00997314,
156,0.00488281,0.010022,
158,-0.00976563,0.0101196,
160,0.0231934,0.0103516,
162,-0.0109863,0.0104614,
164,-0.00244141,0.0104858,
166,0.0256348,0.0107422,
168,-0.0317383,0.0110596,
170,0.00244141,0.011084,
172,0.00610352,0.011145,
174,-0.0262451,0.0114075,
176,0.00915527,0.011499,
178,0.00488281,0.0115479,
180,-0.0189209,0.0117371,
182,0.000610352,0.0117432,
184,-0.0134277,0.0118774,
186,-0.00854492,0.0119629,
188,0.0134277,0.0120972,
190,0.0012207,0.0121094,
192,-0.00305176,0.0121399,
194,0.0170898,0.0123108,
196,0.0012207,0.012323,
198,0.0250244,0.0125732,
200,-0.0244141,0.0126831,
202,-0.0152588,0.0125793,
204,0.0323486,0.0126953,
206,0.00366211,0.0126831,
208,-0.0219727,0.0128113,
210,0.0115967,0.012915,
212,-0.0195313,0.0129944,
214,0.0115967,0.0130188,
216,0.00976563,0.0129211,
218,-0.0158691,0.0129089,
220,0.0170898,0.0130188,
222,0.00183105,0.0128357,
224,-0.0280762,0.0131104,
226,0.0134277,0.013092,
228,0.00488281,0.0131042,
230,0.00244141,0.0130859,
232,0.0140381,0.0130188,
234,-0.0164795,0.0131592,
236,-0.00610352,0.013208,
238,0.0274658,0.013446,
240,0.0231934,0.0135681,
242,-0.022583,0.0137573,
244,-0.0115967,0.013739,
246,-0.00915527,0.0137024,
248,0.00427246,0.0136841,
250,0.00671387,0.0135193,
252,-0.0421143,0.0137512,
254,-0.00793457,0.0135681,
256,-0.0109863,0.0134827,
258,-0.0146484,0.0134521,
260,0.00732422,0.0134155,
262,-0.0201416,0.0135071,
264,-0.00610352,0.0135376,
266,0.0195313,0.0134033,
268,-0.0390625,0.0134277,
270,-0.00305176,0.0134521,
272,0.00488281,0.0133728,
274,-0.0109863,0.0134094,
276,-0.00244141,0.0134155,
278,0.00244141,0.0134155,
280,-0.0164795,0.0135132,
282,0.0134277,0.0135071,
284,0.00244141,0.0134949,
286,-0.00366211,0.0135315,
288,0.0274658,0.0137085,
290,0.000610352,0.0136047,
292,-0.0128174,0.0137024,
294,0.012207,0.013623,
296,-0.00488281,0.0136475,
298,0.0177002,0.0136719,
300,0.032959,0.0139587,
302,-0.0170898,0.0138611,
304,0.0262451,0.0138489,
306,0.0140381,0.0137939,
308,0.00793457,0.0136475,
310,0.0012207,0.013562,
312,0.0140381,0.0134705,
314,0.00854492,0.013501,
316,0.010376,0.013385,
318,-0.0128174,0.013269,
320,0.00427246,0.0131531,
322,-0.00549316,0.0131531,
324,0.0012207,0.013031,
326,-0.0109863,0.0131165,
328,0.00854492,0.013147,
330,-0.00732422,0.0132202,
332,0,0.0129822,
334,-0.00427246,0.0128845,
336,-0.00915527,0.0128967,
338,0.0170898,0.0128906,
340,0.00793457,0.012915,
342,0.0164795,0.0129089,
344,-0.00366211,0.0128357,
346,-0.00366211,0.0127319,
348,0.020752,0.0126587,
350,0.00183105,0.0125,
352,-0.020752,0.012561,
354,0.0268555,0.0125427,
356,0.0012207,0.0125061,
358,-0.0170898,0.0125793,
360,0.0152588,0.0125,
362,0.00366211,0.0124268,
364,0.010376,0.0125061,
366,0.012207,0.0123718,
368,-0.022583,0.0122803,
370,0.00549316,0.0123108,
372,0.0183105,0.0124329,
374,0,0.0121704,
376,-0.010376,0.0121826,
378,0.0195313,0.0123291,
380,0.00305176,0.0121704,
382,0.0292969,0.0124573,
384,-0.0195313,0.0125183,
386,0.00366211,0.0124695,
388,0.022583,0.012561,
390,-0.00305176,0.0125793,
392,-0.00427246,0.0125916,
394,0.0134277,0.0125549,
396,-0.00610352,0.0126038,
398,0.0115967,0.0124695,
400,0.0140381,0.0123657,
402,-0.0292969,0.0125061,
404,0.03479,0.0125305,
406,0.0115967,0.0126099,
408,-0.00976563,0.0124878,
410,0.010376,0.0124756,
412,-0.00488281,0.0123291,
414,0.0213623,0.0124268,
416,0.0183105,0.0125122,
418,-0.012207,0.0124756,
420,-0.00427246,0.0123474,
422,0.0219727,0.0125488,
424,-0.00427246,0.0123108,
426,0.00366211,0.0122131,
428,-0.00671387,0.0122314,
430,-0.0109863,0.0123169,
432,0.0219727,0.0123962,
434,-0.00305176,0.012262,
436,-0.00976563,0.0122986,
438,0.022583,0.0122498,
440,0.00549316,0.0120728,
442,0.0134277,0.0119812,
444,0.00427246,0.011908,
446,-0.00610352,0.0118774,
448,0.0195313,0.01203,
450,0.022583,0.0121887,
452,-0.0231934,0.0119995,
454,0.0183105,0.0121033,
456,-0.0109863,0.0121033,
458,-0.00305176,0.0119873,
460,0.00732422,0.0119873,
462,-0.00305176,0.0118164,
464,0.00366211,0.011792,
466,0.0146484,0.0117432,
468,-0.0280762,0.0116333,
470,0.00244141,0.0116272,
472,0.012207,0.0117004,
474,-0.000610352,0.0115967,
476,-0.00183105,0.0115906,
478,0.0012207,0.0115784,
480,-0.0219727,0.0116333,
482,0.00488281,0.0115479,
484,-0.00488281,0.0115723,
486,-0.00671387,0.0116028,
488,0.0152588,0.0114807,
490,0.00183105,0.0114929,
492,-0.000610352,0.0113708,
494,-0.010376,0.0113525,
496,-0.0189209,0.0114929,
498,0.010376,0.0114197,
500,0.0115967,0.0112061,
502,-0.0457764,0.0114929,
504,0.0177002,0.0114075,
506,-0.00976563,0.0113647,
508,-0.0152588,0.011438,
510,0.0152588,0.0115784,
512,-0.0012207,0.0114502,
514,-0.00305176,0.0113953,
516,0.0280762,0.0115723,
518,-0.00549316,0.011499,
520,0.0158691,0.011615,
522,0.00915527,0.0116516,
524,-0.0164795,0.0118042,
526,0.00915527,0.0117859,
528,0.0152588,0.011853,
530,-0.00915527,0.0118713,
532,0.0134277,0.0120056,
534,-0.0231934,0.0121948,
536,-0.00976563,0.0122009,
538,0.0360107,0.0123901,
540,0.00793457,0.0123901,
542,0.000610352,0.0122314,
544,-0.00793457,0.0122742,
546,-0.0170898,0.0124084,
548,0.00976563,0.0122986,
550,0.00793457,0.0123596,
552,-0.0378418,0.0125305,
554,0.00244141,0.0122864,
556,-0.012207,0.0123962,
558,-0.0213623,0.012439,
560,0.00793457,0.0123657,
562,-0.00244141,0.0123535,
564,0.012207,0.0123718,
566,0.0146484,0.0123962,
568,-0.00183105,0.0121887,
570,0.0164795,0.0122986,
572,0.03479,0.0124634,
574,-0.00366211,0.0125,
576,0.00976563,0.0124939,
578,-0.0219727,0.0125183,
580,0.00732422,0.012561,
582,0.00976563,0.0123657,
584,-0.0152588,0.012323,
586,-0.032959,0.012616,
588,0.0152588,0.0125427,
590,0.0146484,0.0126587,
592,-0.0372314,0.0129883,
594,0.0146484,0.0130005,
596,-0.00366211,0.0129761,
598,0.0177002,0.0130371,
600,0.0177002,0.0130737,
602,-0.00732422,0.012854,
604,0.00427246,0.0125488,
606,0.00427246,0.0124756,
608,-0.00488281,0.0124268,
610,0.010376,0.0124268,
612,-0.0152588,0.0125305,
614,0.00549316,0.0123718,
616,0.012207,0.0123108,
618,-0.022583,0.0124146,
620,0.000610352,0.0123779,
622,0.0280762,0.012439,
624,0.00732422,0.0124695,
626,0.0128174,0.012561,
628,0.010376,0.0125977,
630,0.00549316,0.0125427,
632,0.0317383,0.0126404,
634,0.0341797,0.0129517,
636,-0.0384521,0.0132385,
638,0.0189209,0.0132019,
640,-0.00366211,0.0131836,
642,-0.0134277,0.0131836,
644,0.00854492,0.0132263,
646,-0.00732422,0.0132385,
648,-0.00732422,0.0131165,
650,0.0140381,0.013031,
652,-0.0256348,0.0130554,
654,0.0219727,0.013092,
656,0.00976563,0.0130798,
658,-0.00793457,0.0131287,
660,0.00305176,0.0130859,
662,-0.0115967,0.0131714,
664,0.00915527,0.0132263,
666,0.0170898,0.0132507,
668,-0.0140381,0.0131104,
670,-0.00244141,0.0131104,
672,0.0115967,0.0131042,
674,-0.00183105,0.0131165,
676,0.00671387,0.0131653,
678,0.00976563,0.0132507,
680,-0.00366211,0.0130676,
682,0.0256348,0.0132751,
684,0.0390625,0.0136169,
686,0.00427246,0.0135925,
688,0.0012207,0.0134521,
690,0.0134277,0.0135681,
692,-0.0128174,0.0136902,
694,0.0231934,0.0138184,
696,-0.0256348,0.0138855,
698,-0.00732422,0.013855,
700,0.00854492,0.0138245,
702,-0.0421143,0.0137878,
704,0.00976563,0.0137085,
706,0.010376,0.0137146,
708,-0.00244141,0.0135864,
710,-0.00244141,0.0134583,
712,0.00915527,0.0135376,
714,0.000610352,0.0135132,
716,0.0189209,0.0134216,
718,-0.0140381,0.0135071,
720,-0.00915527,0.0134399,
722,0.0152588,0.013501,
724,0.00793457,0.0134155,
726,-0.00671387,0.0133911,
728,0.012207,0.0133606,
730,-0.00244141,0.0132935,
732,0.00793457,0.0132385,
734,-0.0012207,0.0130188,
736,0.00183105,0.0129395,
738,0.0189209,0.0127686,
740,0.00549316,0.0127441,
742,-0.00488281,0.0127869,
744,0.00488281,0.0127563,
746,-0.00732422,0.0126587,
748,0.032959,0.0128906,
750,0.010376,0.012915,
752,-0.0366211,0.0129028,
754,0.0152588,0.013031,
756,0.00854492,0.0129944,
758,-0.00610352,0.0128418,
760,0.0183105,0.0129456,
762,-0.0378418,0.0132996,
764,0.0128174,0.0133057,
766,0.0286865,0.013446,
768,-0.0238037,0.0136658,
770,-0.0012207,0.0135132,
772,0.00610352,0.0132263,
774,0.00427246,0.0132324,
776,-0.0012207,0.013147,
778,0.00366211,0.0129639,
780,0.000610352,0.0128967,
782,0.0164795,0.0129639,
784,0.0109863,0.0129211,
786,-0.0201416,0.012793,
788,0.0195313,0.0128357,
790,0.00732422,0.0127625,
792,-0.012207,0.0125122,
794,0.0201416,0.0125671,
796,-0.000610352,0.0125366,
798,0.0109863,0.0124695,
800,0.00976563,0.0123901,
802,-0.000610352,0.012323,
804,0.0183105,0.0124634,
806,0.00976563,0.0125183,
808,-0.0195313,0.0126648,
810,0,0.012561,
812,-0.00488281,0.0124573,
814,-0.00793457,0.0124817,
816,0.00305176,0.0123901,
818,-0.0128174,0.0122925,
820,-0.00488281,0.0123352,
822,0.0152588,0.012207,
824,-0.00610352,0.0121948,
826,0.012207,0.0121887,
828,-0.00793457,0.0121643,
830,-0.0140381,0.0122498,
832,0.0256348,0.0121887,
834,0.0109863,0.0119568,
836,-0.0238037,0.0118103,
838,0.00366211,0.0116577,
840,0.012207,0.0117432,
842,-0.00854492,0.0116943,
844,0.00793457,0.0116882,
846,-0.0012207,0.0116272,
848,0.0134277,0.0116882,
850,0.0219727,0.0117676,
852,-0.0219727,0.011731,
854,0.00671387,0.0115784,
856,0.0140381,0.0116211,
858,0.00183105,0.0115601,
860,0.00671387,0.0115967,
862,-0.00305176,0.0115112,
864,-0.0140381,0.0115601,
866,0.010376,0.0114929,
868,-0.00610352,0.0114136,
870,-0.00366211,0.0114258,
872,0.00549316,0.0113647,
874,-0.00305176,0.011377,
876,0.0109863,0.0114197,
878,0.00915527,0.0114136,
880,-0.0115967,0.0114929,
882,0.010376,0.0113403,
884,0.020752,0.0111572,
886,-0.0170898,0.0112854,
888,0.0128174,0.0114014,
890,-0.00854492,0.0113525,
892,-0.00854492,0.0113098,
894,-0.00244141,0.0111023,
896,-0.00732422,0.0109192,
898,-0.00976563,0.0109436,
900,0.0256348,0.0111145,
902,0,0.0106934,
904,0.0195313,0.010791,
906,0.0219727,0.010907,
908,-0.0213623,0.0110962,
910,0.0262451,0.0113342,
912,-0.00610352,0.0113037,
914,-0.00183105,0.0113159,
916,0.0152588,0.0112793,
918,-0.0262451,0.0114014,
920,-0.0164795,0.0114746,
922,0.00549316,0.011377,
924,-0.00183105,0.0113159,
926,-0.00427246,0.0112915,
928,0.00732422,0.0112427,
930,-0.00915527,0.0113098,
932,0.00854492,0.0113159,
934,0.00854492,0.0113892,
936,-0.010376,0.0114746,
938,0.0164795,0.0114502,
940,0.00915527,0.0114868,
942,-0.00854492,0.0115234,
944,0.0128174,0.0116028,
946,-0.0115967,0.0116455,
948,0.00305176,0.0113464,
950,0.0134277,0.011377,
952,-0.0177002,0.0111877,
954,0.0109863,0.011145,
956,0.00488281,0.0111084,
958,0.00488281,0.0110962,
960,-0.0109863,0.0110229,
962,0.00366211,0.0106812,
964,0.0115967,0.0106689,
966,0.0280762,0.0106628,
968,-0.0299072,0.0107239,
970,0.0012207,0.0107239,
972,0.0195313,0.0108582,
974,0.00244141,0.0108398,
976,-0.00793457,0.010907,
978,0.00610352,0.0109314,
980,-0.00244141,0.0109497,
982,0.0152588,0.0109375,
984,0.0012207,0.0108398,
986,-0.0183105,0.0108215,
988,0.0250244,0.0108765,
990,0.00183105,0.0108215,
992,0.00244141,0.0107239,
994,0.010376,0.0106262,
996,-0.0164795,0.0107849,
998,0.00244141,0.0106995,
1000,0.012207,0.0107239,
1002,-0.0170898,0.0108887,
1004,-0.00366211,0.0107422,
1006,-0.0012207,0.0106567,
1008,-0.00427246,0.0105042,
1010,-0.022583,0.01073,
1012,-0.010376,0.0107849,
1014,0.00549316,0.0107605,
1016,0.00915527,0.0108215,
1018,-0.0140381,0.0108337,
1020,-0.00793457,0.0108643,
1022,0.0128174,0.0108398,
1024,-0.00610352,0.0108398,
1026,0,0.0107178,
1028,0.00915527,0.01073,
1030,-0.00183105,0.0106079,
1032,-0.00305176,0.0103821,
1034,0.00671387,0.0103394,
1036,-0.0109863,0.0102112,
1038,0.0134277,0.0103088,
1040,-0.0128174,0.0103149,
1042,-0.00976563,0.0103271,
1044,0.00854492,0.0103333,
1046,-0.00976563,0.0104187,
1048,-0.00244141,0.0103088,
1050,0.0012207,0.0101013,
1052,-0.00549316,0.00993652,
1054,0.0128174,0.00999756,
1056,0.00671387,0.00992432,
1058,0,0.00990601,
1060,0.0189209,0.0100281,
1062,0.00366211,0.0100342,
1064,0.00305176,0.00992432,
1066,0.022583,0.0100464,
1068,-0.0195313,0.0101807,
1070,0.00915527,0.0102356,
1072,0.0177002,0.0103577,
1074,-0.0115967,0.0104431,
1076,0.0115967,0.0104492,
1078,-0.022583,0.0105835,
1080,0.00305176,0.010498,
1082,-0.00244141,0.0104187,
1084,-0.010376,0.0103149,
1086,-0.0158691,0.0103027,
1088,0.00366211,0.0102112,
1090,-0.010376,0.0102295,
1092,-0.0189209,0.0103333,
1094,0.00305176,0.0103394,
1096,-0.00915527,0.0103577,
1098,0.012207,0.0103821,
1100,0.00671387,0.0101929,
1102,0.00549316,0.0102478,
1104,0.00610352,0.0101135,
1106,0.00976563,0.00999146,
1108,0.00854492,0.00986328,
1110,-0.0183105,0.00978394,
1112,-0.000610352,0.009729,
1114,-0.00183105,0.009729,
1116,0.00427246,0.00961914,
1118,-0.0219727,0.00957642,
1120,-0.00671387,0.00947876,
1122,-0.0140381,0.00956421,
1124,0.00732422,0.00961914,
1126,-0.00793457,0.00965576,
1128,0.00610352,0.00964355,
1130,0.0012207,0.00956421,
1132,0.00732422,0.009552,
1134,0.000610352,0.00947266,
1136,0.00549316,0.00942383,
1138,0.0152588,0.00941162,
1140,0.00976563,0.00941772,
1142,-0.00183105,0.00935059,
1144,0,0.00922241,
1146,-0.0134277,0.00924072,
1148,0.0134277,0.00934448,
1150,0.0146484,0.00935669,
1152,-0.0195313,0.009375,
1154,0.00671387,0.00933228,
1156,0.00671387,0.00935059,
1158,-0.00488281,0.00935059,
1160,0.0128174,0.0093689,
1162,0.00305176,0.00936279,
1164,0.00610352,0.00930786,
1166,0.00976563,0.00912476,
1168,0.00488281,0.00887451,
1170,-0.00793457,0.00894165,
1172,0.0219727,0.00896606,
1174,-0.00244141,0.00896606,
1176,0.00488281,0.00893555,
1178,0.00671387,0.00894165,
1180,-0.00732422,0.00899048,
1182,0.00732422,0.00891113,
1184,0.00305176,0.00892944,
1186,-0.0115967,0.0088623,
1188,0.0128174,0.00874023,
1190,-0.00976563,0.00881958,
1192,-0.00366211,0.00883179,
1194,0.00793457,0.00880737,
1196,-0.00427246,0.0086853,
1198,0.00244141,0.0086853,
1200,0.0213623,0.00877686,
1202,0.00244141,0.00863037,
1204,0.0170898,0.00876465,
1206,0.00488281,0.00880127,
1208,0.00244141,0.00878296,
1210,-0.00610352,0.00861816,
1212,0.0109863,0.00862427,
1214,0.000610352,0.00857544,
1216,0.000610352,0.00848999,
1218,-0.00732422,0.00842285,
1220,-0.0213623,0.00855713,
1222,0.0177002,0.00860596,
1224,0.00427246,0.00858765,
1226,-0.0109863,0.00869751,
1228,0.00610352,0.00866699,
1230,-0.00671387,0.00871582,
1232,0.0115967,0.00880127,
1234,0.00915527,0.00882568,
1236,-0.00488281,0.00876465,
1238,0.000610352,0.00863647,
1240,0.00793457,0.00858765,
1242,-0.00183105,0.0085083,
1244,0.0164795,0.00858765,
1246,0.00976563,0.00858765,
1248,-0.0213623,0.00877686,
1250,0.0115967,0.00888062,
1252,0.00305176,0.0088562,
1254,0.0158691,0.00888672,
1256,-0.0146484,0.00896606,
1258,-0.00915527,0.00905762,
1260,0.022583,0.00909424,
1262,-0.00610352,0.00911865,
1264,-0.00183105,0.00910645,
1266,0.0183105,0.00906372,
1268,0.0189209,0.00905762,
1270,0.0012207,0.00897827,
1272,0.0378418,0.00917969,
1274,-0.0256348,0.00932007,
1276,0.0323486,0.00952759,
1278,0.00305176,0.00933228,
1280,-0.00793457,0.0093811,
1282,0.00732422,0.00942993,
1284,0.0213623,0.00953979,
1286,-0.00793457,0.00946045,
1288,0,0.00942383,
1290,-0.0177002,0.00949707,
1292,0.0109863,0.00941772,
1294,0.0128174,0.00951538,
1296,-0.0201416,0.00962524,
1298,-0.00183105,0.00952148,
1300,0.0140381,0.00959473,
1302,-0.00244141,0.00956421,
1304,-0.00488281,0.009552,
1306,0.0170898,0.00962524,
1308,0.012207,0.00966187,
1310,0.0323486,0.00980225,
1312,0.00610352,0.00985718,
1314,0.010376,0.00994263,
1316,-0.0134277,0.0100342,
1318,0.0164795,0.00997925,
1320,-0.012207,0.0100342,
1322,0.010376,0.00999756,
1324,-0.00427246,0.00996704,
1326,-0.0115967,0.0100037,
1328,-0.00183105,0.00996094,
1330,-0.00610352,0.0100098,
1332,0.00305176,0.00996704,
1334,0.0146484,0.0101074,
1336,-0.00366211,0.0100891,
1338,0.0244141,0.0101807,
1340,0.00915527,0.0101746,
1342,0.00183105,0.0101746,
1344,0.00793457,0.0102539,
1346,0.00488281,0.0101685,
1348,-0.00183105,0.0100525,
1350,0.010376,0.0100098,
1352,-0.0134277,0.00994873,
1354,-0.00610352,0.00994263,
1356,-0.0140381,0.0100159,
1358,-0.00244141,0.00999146,
1360,0.00610352,0.00992432,
1362,0.00976563,0.00999146,
1364,-0.0115967,0.0100464,
1366,0.00915527,0.0100403,
1368,0.00854492,0.0100769,
1370,0.00305176,0.0100281,
1372,0.0140381,0.00994873,
1374,0.00793457,0.0100037,
1376,-0.00305176,0.00998535,
1378,0.0146484,0.0100647,
1380,-0.0189209,0.0101807,
1382,0.00793457,0.0101868,
1384,0.00915527,0.0102478,
1386,-0.0152588,0.0102844,
1388,0.0158691,0.0103149,
1390,0.0170898,0.0103882,
1392,-0.00915527,0.0104431,
1394,0.00976563,0.0104614,
1396,0.0256348,0.010675,
1398,0.00915527,0.0107422,
1400,0.00366211,0.0105652,
1402,-0.0115967,0.0106567,
1404,-0.00427246,0.0105286,
1406,0.0109863,0.0105896,
1408,-0.00305176,0.0105957,
1410,-0.0109863,0.0106445,
1412,-0.00610352,0.0105957,
1414,0.00732422,0.0106628,
1416,-0.00854492,0.0107422,
1418,-0.00610352,0.01073,
1420,-0.00671387,0.0105835,
1422,0.00549316,0.0104614,
1424,-0.00671387,0.0104858,
1426,-0.00671387,0.0104431,
1428,0.00793457,0.0104614,
1430,-0.00427246,0.010437,
1432,0.010376,0.0104248,
1434,0.0189209,0.0105225,
1436,-0.0189209,0.0106628,
1438,0.0164795,0.0108215,
1440,0.00976563,0.0108398,
1442,0.00488281,0.0108704,
1444,0.0115967,0.0108215,
1446,-0.0134277,0.0108582,
1448,0.0134277,0.0107788,
1450,0.00610352,0.0107239,
1452,-0.000610352,0.0106995,
1454,-0.0012207,0.010553,
1456,0.010376,0.0105103,
1458,0.0146484,0.0105652,
1460,-0.0250244,0.0105896,
1462,0.0134277,0.0106628,
1464,0.0158691,0.0108032,
1466,0.0115967,0.0107361,
1468,-0.0134277,0.0106812,
1470,-0.0012207,0.0106812,
1472,-0.0115967,0.0104187,
1474,0.00427246,0.0102051,
1476,-0.00549316,0.00993652,
1478,-0.00305176,0.00993652,
1480,-0.0250244,0.0101074,
1482,0.00183105,0.0100525,
1484,0.00610352,0.0098999,
1486,-0.0195313,0.0100159,
1488,0.00854492,0.0101013,
1490,0.0201416,0.0101257,
1492,0.00976563,0.0101135,
1494,0.00549316,0.0100403,
1496,-0.00976563,0.00993652,
1498,0.0213623,0.0101318,
1500,0.0146484,0.0101379,
1502,-0.00732422,0.0101868,
1504,0.0012207,0.0101501,
1506,0.00976563,0.0100769,
1508,-0.00183105,0.00997314,
1510,0.0140381,0.00979004,
1512,0.0128174,0.00985718,
1514,-0.0177002,0.00993042,
1516,0.0219727,0.0100159,
1518,-0.00915527,0.00994263,
1520,-0.00976563,0.00991821,
1522,0.0140381,0.00995483,
1524,0.000610352,0.00991821,
1526,-0.010376,0.00990601,
1528,0.0109863,0.00999756,
1530,-0.00915527,0.0100281,
1532,0.0183105,0.0101807,
1534,0.0146484,0.0101807,
1536,-0.00915527,0.0102356,
1538,0.0189209,0.0101807,
1540,0.022583,0.0103149,
1542,-0.00183105,0.0103149,
1544,0.000610352,0.0102417,
1546,0.00244141,0.0102173,
1548,0.00366211,0.0102356,
1550,0.00671387,0.010199,
1552,-0.012207,0.0101868,
1554,-0.00854492,0.0102112,
1556,0.00915527,0.0101624,
1558,-0.00915527,0.0102295,
1560,0.00671387,0.0102356,
1562,0.00610352,0.010199,
1564,-0.00183105,0.0101013,
1566,0.00854492,0.0100952,
1568,0.0140381,0.0101501,
1570,-0.00183105,0.0101379,
1572,0.0274658,0.0102722,
1574,0.00610352,0.0102539,
1576,-0.010376,0.0103271,
1578,0.00793457,0.01026,
1580,0.00366211,0.0101074,
1582,0.00854492,0.0101135,
1584,0.00671387,0.0100891,
1586,-0.00671387,0.0100037,
1588,0.0128174,0.00997314,
1590,-0.00671387,0.00986938,
1592,0.00183105,0.00979614,
1594,0.0140381,0.00983887,
1596,-0.00305176,0.00961304,
1598,0.0012207,0.00953369,
1600,0.00854492,0.00958252,
1602,-0.0170898,0.00963745,
1604,-0.010376,0.00969849,
1606,0.00671387,0.00965576,
1608,0.00305176,0.00965576,
1610,-0.00671387,0.00961304,
1612,0.00671387,0.00961914,
1614,-0.000610352,0.009552,
1616,0.0109863,0.00957642,
1618,-0.00488281,0.00956421,
1620,-0.00976563,0.00959473,
1622,0.0213623,0.00975342,
1624,0.010376,0.00979004,
1626,0.000610352,0.009729,
1628,0.022583,0.00987549,
1630,-0.0152588,0.00998535,
1632,0.0177002,0.0100586,
1634,0.010376,0.00997314,
1636,-0.00793457,0.00986328,
1638,0.0146484,0.00984497,
1640,-0.00244141,0.00977173,
1642,-0.0299072,0.010022,
1644,0.0238037,0.010144,
1646,-0.010376,0.0101135,
1648,-0.00549316,0.0100342,
1650,0.00305176,0.0100037,
1652,-0.0152588,0.0101501,
1654,0.00671387,0.0102051,
1656,0.010376,0.0102051,
1658,0.00915527,0.0101501,
1660,0.00488281,0.00994873,
1662,0.00610352,0.00987549,
1664,-0.00366211,0.00975342,
1666,0.0158691,0.00979614,
1668,0.0134277,0.00979614,
1670,-0.00366211,0.00982056,
1672,0,0.00970459,
1674,0.0152588,0.00981445,
1676,-0.00427246,0.00980225,
1678,-0.00488281,0.00982056,
1680,0.000610352,0.00957642,
1682,0.010376,0.00966187,
1684,0.00244141,0.00962524,
1686,-0.0109863,0.00953979,
1688,0.00976563,0.009552,
1690,0.00915527,0.00944214,
1692,-0.010376,0.00944824,
1694,0.00244141,0.00941772,
1696,0.00244141,0.00934448,
1698,-0.00305176,0.00916138,
1700,0.00671387,0.00908203,
1702,-0.0109863,0.00911865,
1704,0.00854492,0.00919189,
1706,-0.00244141,0.00911865,
1708,-0.00305176,0.00913086,
1710,-0.00549316,0.00904541,
1712,0.010376,0.009021,
1714,-0.00854492,0.00892944,
1716,0.0128174,0.00883789,
1718,-0.00732422,0.00881958,
1720,-0.00732422,0.00879517,
1722,0.0183105,0.00883789,
1724,0.0109863,0.00894165,
1726,-0.0183105,0.009021,
1728,-0.00305176,0.00894165,
1730,0.00671387,0.00891724,
1732,0.00793457,0.00881348,
1734,0.00671387,0.00873413,
1736,-0.00976563,0.00874023,
1738,0.0146484,0.00869751,
1740,-0.00549316,0.00852661,
1742,0.0378418,0.00888672,
1744,-0.0115967,0.00899658,
1746,0,0.00897217,
1748,0.0146484,0.00908203,
1750,0.0146484,0.00916138,
1752,-0.00671387,0.00910645,
1754,-0.0146484,0.00916748,
1756,0.0146484,0.00922241,
1758,-0.00915527,0.00922241,
1760,0.000610352,0.00916138,
1762,0.00671387,0.00916748,
1764,-0.00610352,0.00921021,
1766,0.010376,0.00922852,
1768,-0.0012207,0.00910034,
1770,0.00305176,0.00911255,
1772,0.00793457,0.00891724,
1774,0.0140381,0.00899658,
1776,-0.00549316,0.00894775,
1778,0.0189209,0.00905762,
1780,-0.022583,0.00924683,
1782,0.0201416,0.00936279,
1784,0.00610352,0.00935669,
1786,-0.012207,0.00941162,
1788,0.00732422,0.00935669,
1790,0.00549316,0.00934448,
1792,0.012207,0.00944824,
1794,-0.0170898,0.00947876,
1796,0.00305176,0.00947876,
1798,0.022583,0.00969238,
1800,0.00610352,0.00966797,
1802,-0.0170898,0.00966797,
1804,0.00610352,0.00962524,
1806,0.0170898,0.009729,
1808,0.00305176,0.009729,
1810,-0.00183105,0.00968018,
1812,-0.00610352,0.00967407,
1814,0.0177002,0.00984497,
1816,0.00549316,0.00979004,
1818,-0.00549316,0.00979614,
1820,-0.0012207,0.00971069,
1822,0.0158691,0.00965576,
1824,0.00366211,0.00958862,
1826,-0.0128174,0.00971069,
1828,0.00976563,0.00958252,
1830,-0.00366211,0.00946655,
1832,0.00915527,0.0093811,
1834,0.0146484,0.00942383,
1836,-0.00915527,0.00943604,
1838,0.0164795,0.00945435,
1840,0.0140381,0.00957031,
1842,-0.0195313,0.00946655,
1844,0.00549316,0.00928345,
1846,0.00732422,0.00925293,
1848,0.0012207,0.00921021,
1850,-0.0012207,0.00919189,
1852,-0.0177002,0.00921631,
1854,-0.00488281,0.009198,
1856,0.0152588,0.00924683,
1858,0,0.00915527,
1860,0.00244141,0.00913086,
1862,0.0311279,0.0093811,
1864,-0.00915527,0.00943604,
1866,0.00732422,0.00935059,
1868,0.00549316,0.00927124,
1870,-0.0183105,0.00941772,
1872,0.00793457,0.00949707,
1874,0.010376,0.00944824,
1876,-0.0164795,0.00957031,
1878,0.00732422,0.00959473,
1880,0,0.00958862,
1882,0.00793457,0.00956421,
1884,0.0231934,0.00977173,
1886,-0.020752,0.00986938,
1888,0.0238037,0.0100098,
1890,-0.00244141,0.00994263,
1892,-0.000610352,0.00984497,
1894,0.00549316,0.00987549,
1896,-0.00549316,0.00990601,
1898,-0.0012207,0.0098877,
1900,0.0115967,0.00993652,
1902,-0.00732422,0.0098999,
1904,-0.00793457,0.0098938,
1906,0.0146484,0.0100159,
1908,0.00732422,0.0100586,
1910,0.00610352,0.0100647,
1912,-0.00244141,0.00998535,
1914,-0.00244141,0.00992432,
1916,0.020752,0.0100037,
1918,0.00549316,0.00998535,
1920,-0.0146484,0.0100586,
1922,0.0170898,0.0100464,
1924,0.00366211,0.00997314,
1926,-0.00793457,0.00986938,
1928,0.0115967,0.00995483,
1930,-0.00183105,0.00990601,
1932,0.0164795,0.00999146,
1934,0.00976563,0.010022,
1936,-0.00488281,0.00997314,
1938,0.00488281,0.00987549,
1940,0.00488281,0.00986938,
1942,-0.0012207,0.00950317,
1944,0.0115967,0.00950317,
1946,0.010376,0.00960693,
1948,-0.00854492,0.0095459,
1950,0.0201416,0.00960083,
1952,-0.000610352,0.00953979,
1954,0,0.00939331,
1956,0.0183105,0.00942993,
1958,0.00732422,0.00941162,
1960,-0.00488281,0.00945435,
1962,0.0140381,0.00952759,
1964,-0.00549316,0.00952148,
1966,0.010376,0.00952148,
1968,0.0128174,0.00963745,
1970,-0.0140381,0.00974731,
1972,0.0256348,0.00992432,
1974,0.00183105,0.00980225,
1976,-0.00732422,0.00982056,
1978,0.0250244,0.00988159,
1980,0.00488281,0.00970459,
1982,0.0170898,0.00967407,
1984,0.00549316,0.00966797,
1986,-0.00976563,0.00964355,
1988,0.0219727,0.00979004,
1990,0.00671387,0.00980225,
1992,0.00488281,0.009729,
1994,0.0109863,0.00966797,
1996,0.00976563,0.00973511,
1998,0.00488281,0.00955811,
2000,0.00488281,0.0095459,
2002,0.00488281,0.00942383,
2004,-0.00488281,0.00941162,
2006,0.012207,0.00936279,
2008,0.0128174,0.00946045,
2010,-0.00976563,0.00953979,
2012,0.0164795,0.00964355,
2014,-0.00427246,0.00950928,
2016,-0.00976563,0.009552,
2018,0.0109863,0.00960693,
2020,-0.00305176,0.00962524,
2022,0.0177002,0.00964355,
2024,0.00793457,0.00968628,
2026,-0.0146484,0.00970459,
2028,0.0109863,0.0097168,
2030,-0.00427246,0.0097229,
2032,0.00732422,0.00970459,
2034,0.0195313,0.00975342,
2036,-0.00488281,0.00971069,
2038,0.0140381,0.00968628,
2040,0.00976563,0.00964355,
2042,-0.012207,0.00957031,
2044,0.0140381,0.00965576,
2046,0.0140381,0.0097229,
2048,0.0134277,0.00984497,
2050,0.00244141,0.00985718,
2052,-0.0012207,0.00969238,
2054,-0.00488281,0.00969238,
2056,0.0299072,0.00983887,
2058,-0.00671387,0.00990601,
2060,0.000610352,0.0098877,
2062,0.0109863,0.00968628,
2064,-0.00671387,0.00966187,
2066,0.00427246,0.00963135,
2068,0.000610352,0.00958252,
2070,-0.00427246,0.00944214,
2072,0.0134277,0.00949707,
2074,0.0012207,0.00940552,
2076,-0.00549316,0.00929565,
2078,0.022583,0.00944824,
2080,0.0177002,0.00962524,
2082,0.00305176,0.00957642,
2084,0.00305176,0.009375,
2086,-0.00732422,0.00924072,
2088,0.0134277,0.00913696,
2090,0.00793457,0.00919189,
2092,0.00244141,0.00921021,
2094,-0.0134277,0.00928955,
2096,-0.00732422,0.00930786,
2098,0.00549316,0.00935059,
2100,0.0109863,0.00934448,
2102,-0.00488281,0.00932007,
2104,-0.0189209,0.00942993,
2106,0.0262451,0.0095459,
2108,0.0115967,0.00958862,
2110,0.0189209,0.0097168,
2112,-0.00488281,0.00974121,
2114,0.0140381,0.00985718,
2116,0.00549316,0.00970459,
2118,0.0134277,0.00978394,
2120,-0.0128174,0.00976563,
2122,0.0152588,0.00974731,
2124,-0.00671387,0.00977783,
2126,-0.0158691,0.00985718,
2128,0.00366211,0.00977783,
2130,-0.0158691,0.00991821,
2132,0.00183105,0.00977173,
2134,0.0183105,0.00985718,
2136,-0.00427246,0.00985107,
2138,0.0109863,0.00991211,
2140,0.00793457,0.00994263,
2142,0.0012207,0.00994263,
2144,0.0238037,0.0100647,
2146,0.00488281,0.0100098,
2148,-0.00366211,0.00996094,
2150,0.00976563,0.00985718,
2152,-0.00244141,0.00987549,
2154,-0.00549316,0.00993042,
2156,0.00305176,0.00977783,
2158,0.00549316,0.00975952,
2160,-0.0109863,0.00982056,
2162,0.00549316,0.00973511,
2164,-0.00305176,0.00971069,
2166,-0.00305176,0.00963745,
2168,0.022583,0.00973511,
2170,-0.00976563,0.00969238,
2172,0.012207,0.00955811,
2174,-0.00305176,0.00957031,
2176,-0.0109863,0.00960693,
2178,0.00793457,0.00943604,
2180,-0.00488281,0.00943604,
2182,-0.0128174,0.00939331,
2184,0.022583,0.00956421,
2186,-0.0262451,0.009729,
2188,0.00305176,0.00953979,
2190,0.00305176,0.00950317,
2192,-0.00488281,0.00950317,
2194,0.00427246,0.00943604,
2196,0.00610352,0.00939941,
2198,-0.00671387,0.00941772,
2200,0.00488281,0.00941772,
2202,0.000610352,0.009375,
2204,-0.00427246,0.0093689,
2206,0.0140381,0.00938721,
2208,0.0134277,0.00939331,
2210,0.00366211,0.00933228,
2212,0.0158691,0.00932617,
2214,-0.00915527,0.009375,
2216,0.010376,0.0093811,
2218,0.0134277,0.00940552,
2220,-0.0170898,0.0095459,
2222,0.0109863,0.00947876,
2224,-0.00366211,0.00943604,
2226,-0.012207,0.00941162,
2228,0.00366211,0.00933838,
2230,-0.00366211,0.00933228,
2232,0.012207,0.0093811,
2234,0.0244141,0.00942993,
2236,-0.0268555,0.00964966,
2238,0.0183105,0.00969238,
2240,0.0146484,0.00974121,
2242,-0.00366211,0.00965576,
2244,0.0170898,0.00968628,
2246,0.00366211,0.00958252,
2248,-0.0109863,0.00955811,
2250,0,0.00953369,
2252,0.00610352,0.00958252,
2254,-0.010376,0.00963745,
2256,0.00366211,0.009375,
2258,0.0115967,0.00942383,
2260,-0.012207,0.00953979,
2262,0.0152588,0.00958252,
2264,0.0115967,0.00963135,
2266,-0.00305176,0.00961914,
2268,0.0146484,0.00975952,
2270,-0.00915527,0.00980835,
2272,0.0158691,0.00983276,
2274,0.0158691,0.00997925,
2276,0.0012207,0.00993652,
2278,-0.0152588,0.00986328,
2280,0.00183105,0.00970459,
2282,0.0115967,0.00979004,
2284,0.0177002,0.00993652,
2286,-0.0231934,0.0100952,
2288,-0.0012207,0.00997314,
2290,0.00244141,0.00991821,
2292,0.00183105,0.00991211,
2294,0,0.00977783,
2296,0.0134277,0.00983887,
2298,-0.0152588,0.00993652,
2300,0.0256348,0.010083,
2302,-0.00732422,0.0101074,
2304,-0.00549316,0.00997314,
2306,0.00915527,0.00980225,
2308,0.00854492,0.00977173,
2310,-0.00488281,0.00963135,
2312,0.012207,0.00970459,
2314,-0.00671387,0.00963135,
2316,0.00671387,0.00964355,
2318,0.0280762,0.00979004,
2320,-0.00915527,0.00975342,
2322,0.0219727,0.00982056,
2324,-0.0152588,0.00990601,
2326,0.0152588,0.0098999,
2328,0.00366211,0.0098999,
2330,0.00671387,0.00980835,
2332,0.0012207,0.00980225,
2334,0.0274658,0.0098938,
2336,-0.012207,0.00997314,
2338,-0.00488281,0.00991211,
2340,-0.00610352,0.0098938,
2342,0.00976563,0.00997925,
2344,0.00366211,0.00977783,
2346,-0.00366211,0.00976563,
2348,-0.0134277,0.00986328,
2350,-0.012207,0.0098877,
2352,0,0.00986328,
2354,-0.00976563,0.00990601,
2356,0.0183105,0.0100586,
2358,0.00427246,0.0100464,
2360,-0.0012207,0.00994873,
2362,0.00427246,0.00993652,
2364,0.00305176,0.00993652,
2366,0.00854492,0.00999146,
2368,0.0152588,0.00991821,
2370,-0.0109863,0.00993042,
2372,0.0219727,0.0100281,
2374,0.00305176,0.0100281,
2376,0.0012207,0.00993042,
2378,0.0170898,0.010022,
2380,-0.0134277,0.0101074,
2382,0.0158691,0.0101379,
2384,0.0189209,0.0101013,
2386,-0.00610352,0.0098999,
2388,0.00366211,0.00990601,
2390,0.00976563,0.00997314,
2392,0.0115967,0.0100403,
2394,0.00244141,0.010022,
2396,0.0134277,0.0100952,
2398,-0.00183105,0.0100464,
2400,0.00183105,0.0100159,
2402,-0.00732422,0.010083,
2404,0.00488281,0.0100891,
2406,0.00732422,0.010022,
2408,-0.00915527,0.00997925,
2410,-0.00976563,0.0100403,
2412,0.0012207,0.0098938,
2414,-0.00427246,0.00984497,
2416,-0.00793457,0.00982056,
2418,0.0244141,0.00993042,
2420,-0.0244141,0.0100037,
2422,0.00427246,0.00993652,
2424,-0.00305176,0.00993042,
2426,-0.00366211,0.00984497,
2428,-0.0012207,0.00982056,
2430,-0.00610352,0.00984497,
2432,0.00427246,0.00976563,
2434,0.0146484,0.00966797,
2436,-0.00976563,0.00949707,
2438,0.00610352,0.009375,
2440,0.0256348,0.00948486,
2442,0.00549316,0.00950317,
2444,0.000610352,0.00933838,
2446,0.0213623,0.00951538,
2448,0,0.00940552,
2450,0.00427246,0.00944824,
2452,-0.010376,0.00949097,
2454,-0.0183105,0.00957031,
2456,0.0134277,0.00966797,
2458,-0.00854492,0.00963745,
2460,-0.00915527,0.00960693,
2462,-0.0012207,0.00946655,
2464,-0.0115967,0.00946655,
2466,0.0115967,0.009552,
2468,0.0134277,0.00953979,
2470,-0.0158691,0.00960693,
2472,0.0219727,0.00966797,
2474,0.00793457,0.00958862,
2476,-0.000610352,0.00958252,
2478,0,0.00942993,
2480,-0.00183105,0.00942993,
2482,0.0012207,0.00932617,
2484,0.0170898,0.00932007,
2486,-0.00610352,0.00914917,
2488,-0.010376,0.00924072,
2490,0.0115967,0.00933228,
2492,0.00305176,0.00934448,
2494,0.0128174,0.00947266,
2496,0.0146484,0.00948486,
2498,-0.010376,0.00943604,
2500,0.0134277,0.00931396,
2502,0.00854492,0.00932617,
2504,-0.0152588,0.00942383,
2506,0.0170898,0.00950317,
2508,0.00427246,0.00946045,
2510,-0.00549316,0.00946655,
2512,0.0134277,0.00947876,
2514,-0.0177002,0.00958862,
2516,0.0158691,0.00968018,
2518,0.0201416,0.00960083,
2520,-0.0140381,0.00964966,
2522,0.00793457,0.00950928,
2524,0.00427246,0.00939941,
2526,-0.00183105,0.00926514,
2528,0.00854492,0.00931396,
2530,-0.000610352,0.00925293,
2532,0.00610352,0.00930176,
2534,0.0170898,0.009198,
2536,-0.0219727,0.00929565,
2538,0.00793457,0.00932617,
2540,0.0164795,0.00942993,
2542,0,0.00933228,
2544,0.010376,0.00939941,
2546,0.00915527,0.00945435,
2548,-0.00427246,0.00936279,
2550,0.0158691,0.00939941,
2552,0.00915527,0.00949097,
2554,-0.00488281,0.00944214,
2556,0.0195313,0.00945435,
2558,0.00671387,0.00947876,
2560,-0.00366211,0.00950317,
2562,0.0244141,0.00970459,
2564,-0.0170898,0.00984497,
2566,0.0128174,0.0098877,
2568,0.012207,0.00985718,
2570,-0.00366211,0.00978394,
2572,0.00976563,0.00966187,
2574,-0.00549316,0.00968628,
2576,0.0115967,0.00979004,
2578,0.0128174,0.00974731,
2580,-0.00610352,0.00967407,
2582,0.0152588,0.00966797,
2584,0.0195313,0.00967407,
2586,-0.00488281,0.00966187,
2588,0,0.00962524,
2590,0,0.00952759,
2592,0.010376,0.00951538,
2594,0.00183105,0.00950928,
2596,-0.00244141,0.00939941,
2598,-0.00671387,0.00944824,
2600,0.00305176,0.00946045,
2602,0.00244141,0.00941162,
2604,-0.0109863,0.00947266,
2606,0.0286865,0.00968628,
2608,0.00976563,0.00969238,
2610,0.0012207,0.00960693,
2612,0.00915527,0.00968628,
2614,-0.00305176,0.00967407,
2616,0.00244141,0.00961914,
2618,0.020752,0.00958252,
2620,-0.022583,0.00956421,
2622,0.00915527,0.00961304,
2624,-0.00183105,0.00960083,
2626,-0.0152588,0.0097168,
2628,0.010376,0.00980835,
2630,-0.00305176,0.00977783,
2632,0.00793457,0.00981445,
2634,0.00671387,0.00973511,
2636,-0.0195313,0.00983276,
2638,0.00854492,0.00985718,
2640,0.00854492,0.00968628,
2642,0.00244141,0.00965576,
2644,-0.00732422,0.0097229,
2646,0.00549316,0.00956421,
2648,-0.00488281,0.00961304,
2650,0.0146484,0.0097168,
2652,0.00671387,0.00968018,
2654,-0.00183105,0.00951538,
2656,0.0231934,0.00961304,
2658,-0.00427246,0.00957031,
2660,-0.00732422,0.009552,
2662,0.0109863,0.00964966,
2664,-0.00183105,0.009552,
2666,-0.00244141,0.00946045,
2668,0.00732422,0.00939941,
2670,-0.022583,0.00946655,
2672,0.00488281,0.00929565,
2674,0.00305176,0.00924683,
2676,-0.00610352,0.00930176,
2678,0.00854492,0.00938721,
2680,0.010376,0.00947266,
2682,-0.00183105,0.00947876,
2684,0.0341797,0.00964966,
2686,-0.0256348,0.00984497,
2688,-0.0012207,0.00975342,
2690,0.00549316,0.00969238,
2692,0,0.00966187,
2694,-0.00671387,0.00960083,
2696,-0.00183105,0.00947266,
2698,-0.0189209,0.00955811,
2700,0.0286865,0.00971069,
2702,-0.00732422,0.00969849,
2704,-0.0128174,0.00967407,
2706,0.0152588,0.00965576,
2708,0.012207,0.00973511,
2710,-0.0109863,0.00979004,
2712,0.00671387,0.0097229,
2714,-0.022583,0.00977173,
2716,0.00976563,0.00971069,
2718,0.010376,0.00961304,
2720,-0.0231934,0.00970459,
2722,0.012207,0.00974731,
2724,0.00549316,0.00975952,
2726,-0.00793457,0.00982056,
2728,0.012207,0.00985718,
2730,0.00427246,0.0098938,
2732,-0.000610352,0.00983887,
2734,0.0152588,0.00982056,
2736,-0.0115967,0.0097168,
2738,-0.000610352,0.00964355,
2740,0.0262451,0.00974121,
2742,0.00549316,0.00979614,
2744,0.00976563,0.00979004,
2746,-0.00610352,0.00975952,
2748,-0.010376,0.00982056,
2750,0.0189209,0.00985107,
2752,0.00854492,0.00984497,
2754,-0.012207,0.00991821,
2756,0.020752,0.00993042,
2758,0.0372314,0.0102356,
2760,-0.0335693,0.0105347,
2762,0.0128174,0.0104187,
2764,0.00427246,0.0102905,
2766,0.020752,0.0103699,
2768,-0.00427246,0.0102905,
2770,-0.0256348,0.0105103,
2772,-0.0012207,0.0104248,
2774,-0.00244141,0.0103943,
2776,-0.00854492,0.0103638,
2778,0.00976563,0.0103333,
2780,0.00854492,0.0103577,
2782,-0.000610352,0.0102112,
2784,0.00854492,0.0101013,
2786,0.00183105,0.0100708,
2788,-0.00549316,0.0101257,
2790,0.0152588,0.0102783,
2792,-0.00610352,0.0102356,
2794,0,0.0102173,
2796,-0.00183105,0.0102112,
2798,0.00244141,0.0101685,
2800,0.0109863,0.0102478,
2802,0.0115967,0.0103394,
2804,-0.0134277,0.0103638,
2806,0.0219727,0.0102966,
2808,0.00366211,0.0102356,
2810,-0.00305176,0.0102539,
2812,0.0219727,0.0103821,
2814,-0.0189209,0.0105408,
2816,0.0134277,0.0106506,
2818,0.0341797,0.0107849,
2820,-0.0341797,0.0109009,
2822,0.00854492,0.0108948,
2824,0.0183105,0.0110596,
2826,-0.012207,0.0110291,
2828,0.000610352,0.0109314,
2830,-0.00488281,0.0109497,
2832,-0.00915527,0.0109619,
2834,0.0158691,0.0110535,
2836,-0.0134277,0.0109924,
2838,-0.00366211,0.0109436,
2840,0.0146484,0.0110046,
2842,0.0115967,0.0110962,
2844,-0.00244141,0.0110474,
2846,0.00915527,0.011084,
2848,-0.00488281,0.011084,
2850,0.0219727,0.0111572,
2852,0.00366211,0.0111267,
2854,-0.0152588,0.011261,
2856,0.0201416,0.0112305,
2858,0.00793457,0.0112671,
2860,-0.00427246,0.0112366,
2862,0.00671387,0.0111938,
2864,-0.00671387,0.0112427,
2866,0.0274658,0.0114929,
2868,0.0109863,0.0115295,
2870,-0.0201416,0.0115051,
2872,0.012207,0.0115784,
2874,-0.000610352,0.011554,
2876,0.000610352,0.011499,
2878,0.00732422,0.0114868,
2880,0.000610352,0.0113892,
2882,0.00976563,0.0114685,
2884,0.0238037,0.0113647,
2886,0.0170898,0.0112793,
2888,-0.0378418,0.0116455,
2890,0.0335693,0.0119263,
2892,0.00854492,0.0120117,
2894,-0.00610352,0.0120056,
2896,-0.00732422,0.0120605,
2898,-0.0164795,0.0120361,
2900,0.0012207,0.0117615,
2902,0.00610352,0.0117493,
2904,-0.00732422,0.0116943,
2906,0.00976563,0.0116394,
2908,0.00366211,0.011554,
2910,-0.00244141,0.0114685,
2912,0.00732422,0.0114746,
2914,-0.00549316,0.0113037,
2916,0.00854492,0.0112915,
2918,0.00854492,0.0112732,
2920,-0.0244141,0.0112854,
2922,0.00976563,0.011261,
2924,0.0115967,0.011322,
2926,-0.000610352,0.0112488,
2928,0.00915527,0.0112183,
2930,0.00915527,0.0112671,
2932,0.00305176,0.0112915,
2934,0.0244141,0.0113831,
2936,-0.0012207,0.0112793,
2938,-0.0189209,0.0114624,
2940,0.0244141,0.0114441,
2942,0.00488281,0.011438,
2944,0,0.0113403,
2946,0.00915527,0.0113708,
2948,-0.010376,0.0113708,
2950,0.0170898,0.0113525,
2952,0.00366211,0.0113037,
2954,-0.00488281,0.0112305,
2956,0.0244141,0.0112671,
2958,0.00488281,0.0109436,
2960,-0.0109863,0.0107178,
2962,0.0152588,0.0107422,
2964,-0.0140381,0.0108398,
2966,0.00976563,0.01073,
2968,0.0146484,0.0108337,
2970,-0.0219727,0.0107971,
2972,0.00610352,0.0108459,
2974,0.00366211,0.0108582,
2976,-0.00305176,0.0108032,
2978,0.0134277,0.0108398,
2980,0.000610352,0.0107605,
2982,0.00976563,0.0108521,
2984,0.00793457,0.0108459,
2986,-0.00549316,0.0108826,
2988,-0.0158691,0.0109863,
2990,0.0238037,0.0110718,
2992,-0.00244141,0.0110352,
2994,0.0012207,0.0110474,
2996,0.0189209,0.0112183,
2998,-0.00793457,0.0112732,
3000,0.0164795,0.0113281,
3002,0.010376,0.0113159,
3004,-0.00488281,0.0112305,
3006,0.00610352,0.0110718,
3008,0,0.0110352,
3010,-0.0134277,0.0111389,
3012,0.00366211,0.0109558,
3014,-0.0170898,0.0109375,
3016,0.00183105,0.0108215,
3018,0.0152588,0.0106323,
3020,-0.0164795,0.0104553,
3022,0.0140381,0.0105103,
3024,0.0170898,0.010498,
3026,-0.00244141,0.0104004,
3028,0.0262451,0.0106567,
3030,0.0164795,0.0107727,
3032,0.0274658,0.0109558,
3034,-0.000610352,0.0108032,
3036,-0.0201416,0.0108704,
3038,0.00915527,0.0109253,
3040,0.0219727,0.0109985,
3042,-0.00610352,0.0109436,
3044,-0.0189209,0.0111084,
3046,-0.000610352,0.0110229,
3048,-0.0115967,0.0110901,
3050,0.0140381,0.0110107,
3052,0.020752,0.0111816,
3054,-0.0152588,0.0111816,
3056,0.012207,0.0111023,
3058,0.00793457,0.0111023,
3060,-0.00244141,0.011084,
3062,0.0109863,0.0111267,
3064,-0.00671387,0.0111267,
3066,-0.00488281,0.0109009,
3068,0.0189209,0.0109802,
3070,-0.0189209,0.010968,
3072,0.0128174,0.0109741,
3074,0.00793457,0.0110474,
3076,0.00244141,0.0110657,
3078,-0.00305176,0.0110229,
3080,0.00793457,0.0110962,
3082,0.00305176,0.0110291,
3084,0.0170898,0.0109619,
3086,0.00183105,0.0108093,
3088,0.000610352,0.010437,
3090,0.0189209,0.0102905,
3092,0.0195313,0.0104004,
3094,-0.0268555,0.0106079,
3096,0.0183105,0.0107178,
3098,-0.000610352,0.0105591,
3100,0.0158691,0.0107056,
3102,-0.00366211,0.0106812,
3104,-0.0305176,0.0109131,
3106,0.0189209,0.0110046,
3108,0.00488281,0.0110168,
3110,-0.00976563,0.0110901,
3112,0.012207,0.0111389,
3114,-0.0128174,0.0112122,
3116,0.0128174,0.0112549,
3118,0.0274658,0.0114441,
3120,-0.0219727,0.0114197,
3122,-0.00610352,0.0113831,
3124,0.00793457,0.0113464,
3126,0.00732422,0.0114136,
3128,-0.00244141,0.0113464,
3130,-0.00244141,0.0112793,
3132,0.00488281,0.0112976,
3134,0.0213623,0.0112671,
3136,0.00915527,0.0113464,
3138,-0.03479,0.0115051,
3140,0.0158691,0.0114197,
3142,0.0244141,0.011615,
3144,-0.00610352,0.011676,
3146,-0.00366211,0.0116211,
3148,-0.012207,0.0116394,
3150,0.00915527,0.0115601,
3152,0.010376,0.0116272,
3154,-0.0152588,0.011731,
3156,0.0170898,0.0116577,
3158,0.0140381,0.0117493,
3160,-0.000610352,0.0116455,
3162,0.00244141,0.0115173,
3164,-0.00854492,0.0114624,
3166,0.00671387,0.0114319,
3168,0.0201416,0.0114868,
3170,-0.0164795,0.0114319,
3172,0.00427246,0.0114136,
3174,0.00854492,0.0114624,
3176,0.0128174,0.0115601,
3178,0.0183105,0.0116089,
3180,0.0140381,0.0117432,
3182,-0.022583,0.0118713,
3184,0.0219727,0.0120117,
3186,0.00732422,0.01203,
3188,-0.0109863,0.0119812,
3190,0.010376,0.0118469,
3192,-0.00671387,0.0118896,
3194,-0.00915527,0.011969,
3196,0.0164795,0.0119446,
3198,-0.0219727,0.012085,
3200,0.0183105,0.0121033,
3202,0.0256348,0.0122559,
3204,-0.020752,0.0124146,
3206,0.00976563,0.0124512,
3208,0.0109863,0.012561,
3210,-0.0115967,0.0125427,
3212,0.00915527,0.0125977,
3214,-0.00671387,0.0124939,
3216,0.00488281,0.0125244,
3218,0.00976563,0.0124695,
3220,-0.0177002,0.0124817,
3222,-0.00671387,0.0124084,
3224,0.00549316,0.0122925,
3226,-0.00366211,0.0123047,
3228,0.00671387,0.0121094,
3230,0.00549316,0.0119995,
3232,0.00549316,0.0117798,
3234,0.00976563,0.0118713,
3236,0.00549316,0.0117249,
3238,-0.0109863,0.0117432,
3240,0.0140381,0.0116638,
3242,0.0109863,0.0117126,
3244,-0.0189209,0.0117126,
3246,0.00183105,0.0117249,
3248,-0.0115967,0.0117249,
3250,0.00244141,0.0116089,
3252,0.0158691,0.0115601,
3254,-0.0189209,0.0115967,
3256,0.0250244,0.0117249,
3258,0.0183105,0.0118286,
3260,0.00793457,0.0118835,
3262,0.0201416,0.0119751,
3264,-0.0219727,0.0121277,
3266,-0.00366211,0.0121155,
3268,0.0323486,0.0122498,
3270,-0.0250244,0.0123108,
3272,-0.00976563,0.0122803,
3274,0.00305176,0.0122314,
3276,-0.022583,0.0124329,
3278,-0.00793457,0.0124817,
3280,0.0152588,0.0125549,
3282,-0.00183105,0.0125427,
3284,0.00976563,0.0124695,
3286,-0.0146484,0.0125977,
3288,-0.0109863,0.0127014,
3290,0.0158691,0.0126709,
3292,0.00244141,0.0125,
3294,-0.0152588,0.012384,
3296,0.012207,0.012323,
3298,-0.0195313,0.0125122,
3300,0.0128174,0.0124817,
3302,0.0231934,0.012677,
3304,-0.0274658,0.0126465,
3306,0.0219727,0.012677,
3308,0.00854492,0.0127136,
3310,-0.00976563,0.0127136,
3312,0.00305176,0.0126221,
3314,-0.00366211,0.0125305,
3316,0.00915527,0.0124939,
3318,0.0195313,0.0124146,
3320,-0.0250244,0.0124451,
3322,0,0.012384,
3324,0.0152588,0.0124573,
3326,-0.00305176,0.0124146,
3328,0.000610352,0.0123962,
3330,0.00671387,0.012439,
3332,0.00366211,0.0124268,
3334,0.0189209,0.0124023,
3336,0.00610352,0.0123718,
3338,-0.00793457,0.0121033,
3340,0.010376,0.0120483,
3342,0.00854492,0.0118896,
3344,-0.0128174,0.0119568,
3346,0.0164795,0.012085,
3348,-0.0262451,0.0122253,
3350,-0.00732422,0.012207,
3352,0.0115967,0.0122192,
3354,-0.0195313,0.012262,
3356,0.00610352,0.0121521,
3358,0.00488281,0.0120605,
3360,-0.0231934,0.0122864,
3362,0.0195313,0.0124573,
3364,0.00549316,0.0124268,
3366,0.00671387,0.0124268,
3368,0.0177002,0.0124023,
3370,-0.0140381,0.0123779,
3372,0.00671387,0.0124023,
3374,0.0213623,0.0125305,
3376,0.000610352,0.0124084,
3378,0.00427246,0.0122681,
3380,0.0115967,0.0122437,
3382,0.00488281,0.0120667,
3384,0.0128174,0.0119751,
3386,0.000610352,0.011908,
3388,-0.00183105,0.0118164,
3390,0.0146484,0.0118591,
3392,0.0158691,0.0119507,
3394,-0.00183105,0.0118774,
3396,0.0140381,0.011853,
3398,-0.00793457,0.0117126,
3400,0.0140381,0.0116699,
3402,0.0244141,0.0116577,
3404,-0.020752,0.0116577,
3406,-0.00671387,0.0116272,
3408,0.010376,0.0116211,
3410,-0.00976563,0.0116028,
3412,-0.0012207,0.0115234,
3414,-0.012207,0.0115784,
3416,0.000610352,0.0115356,
3418,0.012207,0.0115601,
3420,-0.0152588,0.0115356,
3422,-0.00549316,0.0115234,
3424,0.0189209,0.0116577,
3426,0.00244141,0.0116455,
3428,-0.00793457,0.0116577,
3430,0.000610352,0.0116089,
3432,-0.00854492,0.0116394,
3434,0.00976563,0.0116394,
3436,-0.00427246,0.0116272,
3438,-0.00854492,0.0116028,
3440,0.0201416,0.0116638,
3442,0.0012207,0.0115662,
3444,0.00976563,0.0114746,
3446,-0.00732422,0.0115295,
3448,0.00976563,0.0115112,
3450,0.0201416,0.0116882,
3452,0.0109863,0.0116394,
3454,-0.0311279,0.0117615,
3456,0.020752,0.0117188,
3458,0.00244141,0.0115601,
3460,-0.0146484,0.0116272,
3462,0.00427246,0.0114685,
3464,-0.010376,0.0113525,
3466,0.00671387,0.0113831,
3468,0.0311279,0.0113708,
3470,-0.00793457,0.0112,
3472,0.00366211,0.0111389,
3474,0.0256348,0.0113647,
3476,0.00183105,0.0111572,
3478,0.0238037,0.0113159,
3480,-0.00488281,0.0112122,
3482,-0.022583,0.0114197,
3484,0.00366211,0.0113586,
3486,0.0115967,0.0113281,
3488,-0.0250244,0.0114685,
3490,0.00793457,0.0113892,
3492,0.00610352,0.0114258,
3494,-0.00976563,0.0113708,
3496,0.0152588,0.0114014,
3498,-0.000610352,0.0112122,
3500,0.010376,0.0111877,
3502,0.0177002,0.0111328,
3504,-0.020752,0.0110657,
3506,0.0109863,0.0109558,
3508,0.0128174,0.0109985,
3510,-0.0238037,0.0111389,
3512,0.0183105,0.0112915,
3514,-0.0134277,0.0113892,
3516,0.0170898,0.0114685,
3518,0.0177002,0.0114502,
3520,-0.0262451,0.0114624,
3522,0.00793457,0.0115417,
3524,0.0213623,0.0116028,
3526,0.000610352,0.0115784,
3528,0.00305176,0.0116028,
3530,-0.00427246,0.0115784,
3532,-0.0164795,0.0117065,
3534,0.00976563,0.011615,
3536,0.0128174,0.0116821,
3538,-0.0134277,0.0117371,
3540,0.022583,0.0118591,
3542,0.00915527,0.0118652,
3544,-0.00793457,0.0118164,
3546,0.0335693,0.0119873,
3548,-0.00305176,0.0117554,
3550,0.0219727,0.0119019,
3552,0,0.0117859,
3554,-0.0183105,0.0117737,
3556,0.00976563,0.0118103,
3558,0.00549316,0.0118164,
3560,-0.0128174,0.0117126,
3562,0.00854492,0.0116028,
3564,-0.0268555,0.0118164,
3566,-0.00244141,0.0117737,
3568,0.0164795,0.0117615,
3570,-0.0128174,0.0117493,
3572,-0.00305176,0.0117126,
3574,0.00549316,0.011554,
3576,0.00488281,0.0115967,
3578,0,0.011554,
3580,0.00671387,0.0115051,
3582,0.00305176,0.0114868,
3584,0.00427246,0.0114014,
3586,0.0109863,0.0115051,
3588,-0.00915527,0.0115784,
3590,0.0201416,0.0116333,
3592,0.0152588,0.0116272,
3594,-0.0213623,0.0118225,
3596,0.0164795,0.0118469,
3598,0.000610352,0.0117737,
3600,-0.00244141,0.0116577,
3602,0.020752,0.0116211,
3604,-0.0140381,0.011554,
3606,0.0158691,0.0116455,
3608,0.00732422,0.011615,
3610,-0.00427246,0.0115601,
3612,0.00732422,0.0116211,
3614,0.00244141,0.0115234,
3616,0.0146484,0.0116638,
3618,0.0134277,0.011676,
3620,-0.0158691,0.0116821,
3622,-0.00244141,0.0116516,
3624,0.00366211,0.011499,
3626,-0.00183105,0.0114929,
3628,0.00549316,0.0114685,
3630,-0.00610352,0.0115234,
3632,0.00244141,0.0114624,
3634,0.00366211,0.0114014,
3636,0.0201416,0.0115601,
3638,-0.0244141,0.0117188,
3640,0.0195313,0.0117126,
3642,0.00976563,0.0117981,
3644,-0.00915527,0.011792,
3646,0.0177002,0.0118958,
3648,-0.0128174,0.0119263,
3650,-0.00305176,0.0117554,
3652,0.0158691,0.0118042,
3654,-0.0134277,0.0116272,
3656,0.0140381,0.0115601,
3658,0.00793457,0.011615,
3660,-0.0146484,0.011615,
3662,0.00915527,0.0116638,
3664,0.00854492,0.0116455,
3666,0.000610352,0.0115845,
3668,0.0158691,0.0114319,
3670,-0.0238037,0.0115906,
3672,-0.00915527,0.0116455,
3674,0.0189209,0.0115784,
3676,0.0012207,0.0115723,
3678,-0.00366211,0.0113708,
3680,-0.00305176,0.0113525,
3682,0.00183105,0.011145,
3684,0.00793457,0.0111877,
3686,-0.00183105,0.0110901,
3688,-0.00793457,0.0109192,
3690,0.0256348,0.0110962,
3692,0.00671387,0.0111023,
3694,-0.0170898,0.0111755,
3696,0.010376,0.0111267,
3698,0.00915527,0.0112122,
3700,0.00366211,0.011145,
3702,0.0189209,0.0111572,
3704,-0.0152588,0.0111023,
3706,0.0128174,0.0111206,
3708,0.00366211,0.0110291,
3710,-0.00854492,0.0108765,
3712,0.000610352,0.0106995,
3714,0.0012207,0.0105774,
3716,-0.0012207,0.0104187,
3718,0.010376,0.0103455,
3720,-0.00793457,0.0101624,
3722,-0.00915527,0.0101746,
3724,0.0189209,0.0101501,
3726,0.00976563,0.0102417,
3728,0.00366211,0.0102478,
3730,0.0152588,0.0103577,
3732,-0.00244141,0.0102173,
3734,0.0189209,0.0103088,
3736,0.00488281,0.0102295,
3738,-0.00976563,0.0101929,
3740,0.022583,0.0101929,
3742,0.0115967,0.0102173,
3744,-0.012207,0.01026,
3746,0.0128174,0.0100525,
3748,-0.012207,0.010144,
3750,-0.0012207,0.00993652,
3752,0.00915527,0.0100281,
3754,-0.0213623,0.0100586,
3756,0.0164795,0.0101257,
3758,0.000610352,0.0100769,
3760,0.0012207,0.00996094,
3762,0.00183105,0.0098938,
3764,0.00671387,0.00969238,
3766,0.00305176,0.00969849,
3768,0.0274658,0.00980835,
3770,-0.00976563,0.00977783,
3772,0.0128174,0.00987549,
3774,0.00427246,0.00986328,
3776,-0.0128174,0.00994263,
3778,-0.00488281,0.00999146,
3780,0.00793457,0.0100037,
3782,-0.012207,0.0100952,
3784,0.00915527,0.010144,
3786,-0.00610352,0.0100952,
3788,-0.0201416,0.0102051,
3790,0.0152588,0.0101563,
3792,0.00915527,0.0100952,
3794,-0.00183105,0.0098999,
3796,0.0311279,0.0100464,
3798,-0.0201416,0.0102417,
3800,0.0134277,0.0103516,
3802,0.0305176,0.0104492,
3804,-0.0189209,0.010498,
3806,0.012207,0.0104614,
3808,0.00976563,0.0104858,
3810,-0.010376,0.0105469,
3812,0.0177002,0.0106506,
3814,-0.0012207,0.0106384,
3816,0.00183105,0.0105103,
3818,0.0158691,0.0105347,
3820,-0.00549316,0.0104309,
3822,0.00366211,0.0104431,
3824,0.0146484,0.010553,
3826,-0.0189209,0.0107239,
3828,0.00732422,0.0107422,
3830,0.0170898,0.0108521,
3832,-0.00854492,0.0109131,
3834,0.00305176,0.010907,
3836,0.00427246,0.0107483,
3838,-0.00793457,0.0105835,
3840,0.0195313,0.0105835,
3842,0.0146484,0.0106323,
3844,-0.00549316,0.0105957,
3846,0.0366211,0.0107849,
3848,-0.00488281,0.0107056,
3850,0.0494385,0.0111694,
3852,0.0714111,0.0117249,
3854,-0.0219727,0.0118103,
3856,0.0531006,0.0122009,
3858,0.0476074,0.0125977,
3860,-0.0012207,0.0124634,
3862,-0.0170898,0.0125427,
3864,-0.0231934,0.0126892,
3866,-0.0213623,0.0128967,
3868,-0.00854492,0.0128235,
3870,-0.0476074,0.0130615,
3872,-0.03479,0.0133179,
3874,0,0.0131287,
3876,-0.022583,0.0133423,
3878,0.00549316,0.0133606,
3880,0.00366211,0.0133667,
3882,-0.0128174,0.0134766,
3884,0.0146484,0.0135437,
3886,0.00427246,0.0135681,
3888,-0.0292969,0.0137817,
3890,0.00549316,0.0135803,
3892,-0.00549316,0.0135681,
3894,-0.00305176,0.0134277,
3896,0,0.013324,
3898,-0.010376,0.0133362,
3900,0.0109863,0.0134094,
3902,0.012207,0.0133423,
3904,-0.0152588,0.0133423,
3906,0.0134277,0.0133484,
3908,0.0238037,0.0135498,
3910,0.00976563,0.013562,
3912,0.00488281,0.0136047,
3914,0.00915527,0.0136841,
3916,0.00915527,0.0137634,
3918,0.0292969,0.0139526,
3920,-0.0213623,0.0140869,
3922,-0.0170898,0.0141663,
3924,0.00488281,0.0140259,
3926,-0.00976563,0.0140259,
3928,-0.0146484,0.0141357,
3930,0.000610352,0.0139893,
3932,-0.0219727,0.0141846,
3934,0.0140381,0.0141357,
3936,0.0378418,0.0144653,
3938,-0.03479,0.0147156,
3940,0.0506592,0.0149963,
3942,0.0256348,0.0151367,
3944,0.012207,0.0151367,
3946,0.0378418,0.015387,
3948,0.00671387,0.015332,
3950,0.00854492,0.0154053,
3952,0.00854492,0.0153992,
3954,-0.0170898,0.0153564,
3956,0.0134277,0.0153259,
3958,-0.00427246,0.0153625,
3960,-0.0231934,0.0155823,
3962,-0.0256348,0.0158203,
3964,0.0250244,0.0160034,
3966,-0.0256348,0.0162292,
3968,0.0256348,0.0162109,
3970,0.00610352,0.0161743,
3972,0.0262451,0.0163086,
3974,0.0256348,0.0165222,
3976,0.00183105,0.0164124,
3978,-0.000610352,0.0163696,
3980,0.0201416,0.0164917,
3982,-0.00305176,0.0164001,
3984,0.00488281,0.0163574,
3986,0.0256348,0.0165527,
3988,-0.0177002,0.0165283,
3990,0.0280762,0.0166565,
3992,-0.012207,0.016687,
3994,-0.00183105,0.016687,
3996,0.0482178,0.0168579,
3998,0.0158691,0.0168152,
4000,0.00549316,0.0167358,
4002,-0.010376,0.0165344,
4004,-0.0268555,0.0166138,
4006,0.0268555,0.0167603,
4008,-0.0146484,0.0168091,
4010,0.012207,0.0168274,
4012,-0.00854492,0.0167358,
4014,-0.0360107,0.0170837,
4016,-0.00488281,0.0171143,
4018,-0.00183105,0.0169739,
4020,-0.0177002,0.0170959,
4022,-0.0262451,0.0173218,
4024,0.0152588,0.0173279,
4026,-0.020752,0.0173462,
4028,0,0.0172729,
4030,0.0366211,0.0174683,
4032,-0.00183105,0.0174011,
4034,-0.0012207,0.0173828,
4036,0.0195313,0.0175354,
4038,-0.0274658,0.0177307,
4040,0.00793457,0.0176147,
4042,0.00366211,0.0175049,
4044,-0.0274658,0.0177246,
4046,-0.0189209,0.0175476,
4048,-0.0292969,0.0177917,
4050,0.00305176,0.0173279,
4052,-0.0128174,0.0167419,
4054,-0.0402832,0.016925,
4056,0.0292969,0.016687,
4058,0.0317383,0.0165283,
4060,0,0.0165161,
4062,-0.0109863,0.0164551,
4064,0.0268555,0.0164917,
4066,-0.00488281,0.0163269,
4068,0.03479,0.0165894,
4070,-0.00305176,0.0161438,
4072,-0.022583,0.0160217,
4074,0.0164795,0.0161865,
4076,-0.00427246,0.0160034,
4078,-0.0274658,0.0162231,
4080,-0.0152588,0.0163391,
4082,-0.0128174,0.0163391,
4084,-0.00366211,0.0162292,
4086,-0.00915527,0.0162781,
4088,-0.03479,0.016333,
4090,0.0354004,0.0166321,
4092,0.00915527,0.0166687,
4094,-0.0561523,0.0171997,
4096,0.0109863,0.0173096,
4098,0.00183105,0.0172241,
4100,-0.00244141,0.0171387,
4102,0.000610352,0.0170227,
4104,-0.00488281,0.0169189,
4106,0.020752,0.0169922,
4108,0.0610352,0.0173645,
4110,0.00793457,0.0173462,
4112,0.0213623,0.017511,
4114,-0.00915527,0.017511,
4116,0.0238037,0.0176575,
4118,0.00854492,0.01745,
4120,-0.0378418,0.0176147,
4122,-0.0701904,0.0181458,
4124,-0.0439453,0.0185364,
4126,-0.045166,0.0188904,
4128,-0.043335,0.0191772,
4130,0.000610352,0.0191772,
4132,-0.0366211,0.0193237,
4134,-0.00244141,0.0192078,
4136,0.00183105,0.0188477,
4138,-0.0115967,0.0186157,
4140,0.0482178,0.0185913,
4142,0.0158691,0.0184937,
4144,-0.0469971,0.0188416,
4146,-0.0164795,0.0186279,
4148,-0.00427246,0.0186035,
4150,0.00244141,0.0185425,
4152,-0.0317383,0.0187744,
4154,-0.0396729,0.0190002,
4156,-0.0146484,0.0190125,
4158,-0.010376,0.0190735,
4160,-0.0756836,0.0195984,
4162,-0.000610352,0.0193481,
4164,0.0146484,0.0192444,
4166,-0.0146484,0.0191345,
4168,-0.00488281,0.018927,
4170,0.0238037,0.019104,
4172,-0.0128174,0.0189697,
4174,-0.00488281,0.0187622,
4176,-0.00671387,0.018811,
4178,-0.00366211,0.0188416,
4180,0.00793457,0.0187195,
4182,-0.0292969,0.0189819,
4184,-0.0415039,0.0193481,
4186,0.012207,0.0192139,
4188,-0.00549316,0.0190918,
4190,-0.0311279,0.0191223,
4192,-0.0256348,0.0192566,
4194,0.0012207,0.0192505,
4196,0.0109863,0.0188782,
4198,-0.00915527,0.018811,
4200,-0.0219727,0.0189758,
4202,0.0244141,0.0191162,
4204,-0.0427246,0.0192749,
4206,0.0238037,0.0192444,
4208,0.00244141,0.0191223,
4210,-0.00793457,0.0190796,
4212,0.0305176,0.0192993,
4214,-0.0128174,0.0190674,
4216,-0.0170898,0.0191895,
4218,0.00366211,0.0192078,
4220,-0.0268555,0.0192993,
4222,-0.0140381,0.0191772,
4224,0.00976563,0.0191223,
4226,-0.0341797,0.0192566,
4228,-0.0262451,0.019519,
4230,-0.00427246,0.0191956,
4232,-0.0195313,0.0193726,
4234,0.0128174,0.0194885,
4236,0.0402832,0.019696,
4238,-0.00427246,0.0194641,
4240,0.00854492,0.0194702,
4242,-0.0146484,0.0195801,
4244,0.0292969,0.0195984,
4246,0.0402832,0.019812,
4248,-0.0671387,0.0201904,
4250,0.0183105,0.020343,
4252,0.0244141,0.020459,
4254,-0.0305176,0.0203613,
4256,-0.0305176,0.0203735,
4258,0.0402832,0.020459,
4260,0.00427246,0.0205017,
4262,-0.020752,0.0205994,
4264,0.0299072,0.0206299,
4266,-0.00610352,0.0206421,
4268,0.0421143,0.0207153,
4270,-0.03479,0.0210327,
4272,-0.000610352,0.020813,
4274,0.0280762,0.020929,
4276,-0.00244141,0.0209106,
4278,-0.0128174,0.0207642,
4280,-0.0115967,0.0207275,
4282,-0.0256348,0.0208557,
4284,0,0.0208191,
4286,-0.00427246,0.0207703,
4288,-0.0494385,0.0209167,
4290,0.0579834,0.0211426,
4292,-0.00488281,0.0210999,
4294,-0.0109863,0.0206482,
4296,0.0512695,0.021051,
4298,-0.0378418,0.0214111,
4300,0.0012207,0.0213989,
4302,0.0610352,0.0220032,
4304,-0.0531006,0.0224854,
4306,-0.0366211,0.022644,
4308,0.0158691,0.0221924,
4310,-0.0299072,0.0224121,
4312,-0.0177002,0.0223755,
4314,-0.010376,0.0223877,
4316,-0.00671387,0.0222168,
4318,-0.00244141,0.0221558,
4320,-0.0115967,0.0218933,
4322,0.0189209,0.0213806,
4324,0.00183105,0.0209595,
4326,0.0274658,0.0207825,
4328,-0.020752,0.0205566,
4330,0.0164795,0.0207153,
4332,0.0109863,0.020459,
4334,-0.00854492,0.02052,
4336,0.0402832,0.0209045,
4338,-0.0158691,0.0209473,
4340,0.012207,0.0205872,
4342,0.0323486,0.020752,
4344,-0.0567627,0.0208496,
4346,-0.0396729,0.0210815,
4348,0.0262451,0.0213013,
4350,0.0305176,0.021582,
4352,0.00671387,0.0213318,
4354,-0.0335693,0.0212708,
4356,-0.0506592,0.0216309,
4358,0.0585938,0.022113,
4360,0.00244141,0.0213806,
4362,0.0109863,0.0214844,
4364,-0.0195313,0.0215332,
4366,-0.0427246,0.021814,
4368,0.0280762,0.0220459,
4370,-0.0201416,0.0220093,
4372,-0.0274658,0.0221558,
4374,0.03479,0.0224548,
4376,-0.0469971,0.0228577,
4378,0.0897217,0.0237183,
4380,-0.043335,0.0240723,
4382,-0.0701904,0.0244812,
4384,0.0408936,0.0244751,
4386,0.0231934,0.024585,
4388,-0.03479,0.0248779,
4390,-0.000610352,0.0245728,
4392,-0.010376,0.0244202,
4394,-0.000610352,0.0244141,
4396,0.0134277,0.0244385,
4398,-0.0183105,0.02453,
4400,0.0183105,0.0244934,
4402,0.00793457,0.0243286,
4404,-0.00976563,0.023999,
4406,0.010376,0.0238647,
4408,-0.0128174,0.0239685,
4410,0.00488281,0.023938,
4412,0.000610352,0.0236389,
4414,0.0585938,0.0240967,
4416,0.0396729,0.0243225,
4418,0.0012207,0.0242981,
4420,-0.0292969,0.0243225,
4422,-0.00793457,0.0242615,
4424,0.032959,0.0244934,
4426,0.0354004,0.0245056,
4428,-0.0518799,0.024762,
4430,-0.0177002,0.0248962,
4432,-0.0152588,0.0248535,
4434,0.0939941,0.0256653,
4436,-0.0518799,0.0257813,
4438,0.00549316,0.0257935,
4440,0.108032,0.0267883,
4442,0.0341797,0.0269836,
4444,-0.0793457,0.0274841,
4446,0.0421143,0.0275024,
4448,0.00671387,0.0268982,
4450,-0.0213623,0.0269287,
4452,-0.0158691,0.0268433,
4454,-0.057373,0.0271118,
4456,-0.0488281,0.0272949,
4458,-0.00427246,0.0269348,
4460,0,0.0268921,
4462,-0.0219727,0.0269043,
4464,0.0170898,0.0267761,
4466,-0.000610352,0.0267212,
4468,0.0317383,0.0266174,
4470,0.010376,0.0263733,
4472,-0.0292969,0.0266602,
4474,0.0604248,0.0269836,
4476,-0.00183105,0.0269775,
4478,-0.0335693,0.0271851,
4480,0.00610352,0.0271301,
4482,0.00793457,0.0269531,
4484,0.00366211,0.0269897,
4486,-0.000610352,0.0269531,
4488,-0.0238037,0.0266968,
4490,0.0415039,0.026532,
4492,-0.0183105,0.0266663,
4494,0.032959,0.026886,
4496,0.0427246,0.0268005,
4498,-0.0402832,0.026825,
4500,0.022583,0.0270386,
4502,0.0628662,0.0270569,
4504,-0.0396729,0.0269226,
4506,0.010376,0.0266602,
4508,0.020752,0.026709,
4510,-0.0415039,0.026825,
4512,-0.045166,0.0270996,
4514,0.012207,0.0271179,
4516,-0.00427246,0.0270935,
4518,0.0262451,0.0273315,
4520,-0.0292969,0.0275085,
4522,0.012207,0.0274414,
4524,-0.00366211,0.0274597,
4526,0.0140381,0.0273254,
4528,0.010376,0.0272217,
4530,0.00488281,0.0271057,
4532,-0.0219727,0.0272156,
4534,0.0146484,0.0272766,
4536,0.0219727,0.0270935,
4538,-0.0280762,0.0272156,
4540,0.0653076,0.0277466,
4542,-0.0354004,0.0277771,
4544,0.0244141,0.0274536,
4546,0.0262451,0.0273193,
4548,-0.00854492,0.0271423,
4550,0.0250244,0.0270874,
4552,-0.012207,0.0271423,
4554,-0.0280762,0.0270874,
4556,0.0640869,0.0272217,
4558,-0.00366211,0.0266724,
4560,0.0311279,0.0269592,
4562,0.0299072,0.0271484,
4564,0.0134277,0.0270874,
4566,0.0183105,0.0268433,
4568,0.00976563,0.0266602,
4570,0.00671387,0.0265259,
4572,-0.055542,0.0268066,
4574,-0.0128174,0.0265869,
4576,-0.0164795,0.0262817,
4578,-0.022583,0.0256104,
4580,-0.00915527,0.0252686,
4582,0.0115967,0.0246826,
4584,-0.00732422,0.0243469,
4586,0.00854492,0.0242004,
4588,-0.0268555,0.0241211,
4590,0.0134277,0.0242493,
4592,0.000610352,0.0241516,
4594,-0.0219727,0.0243652,
4596,-0.022583,0.0244568,
4598,0.0109863,0.0243835,
4600,0.0292969,0.0244934,
4602,-0.012207,0.0245361,
4604,-0.00915527,0.02453,
4606,0.0531006,0.0249573,
4608,0.0177002,0.0250061,
4610,-0.022583,0.0251831,
4612,0.0170898,0.0253479,
4614,0.00976563,0.0248596,
4616,-0.0360107,0.024823,
4618,-0.00183105,0.0248291,
4620,0.00671387,0.0246033,
4622,-0.0201416,0.0247253,
4624,-0.0177002,0.0245728,
4626,0.0128174,0.0243469,
4628,-0.0164795,0.0239929,
4630,0.0323486,0.0241394,
4632,-0.0268555,0.0242554,
4634,0.0390625,0.0237061,
4636,0.0115967,0.0233032,
4638,-0.0268555,0.0235168,
4640,0.0439453,0.022876,
4642,-0.00305176,0.0225647,
4644,-0.0146484,0.0219177,
4646,-0.0128174,0.0216248,
4648,-0.00427246,0.0216003,
4650,0.00427246,0.0214294,
4652,0.0268555,0.0215393,
4654,0.0115967,0.0210815,
4656,0,0.0205933,
4658,0.0158691,0.0207092,
4660,0.0158691,0.0208679,
4662,-0.0317383,0.0209656,
4664,0.0274658,0.0210693,
4666,-0.0164795,0.021228,
4668,-0.000610352,0.0209167,
4670,-0.020752,0.0210205,
4672,-0.0305176,0.0210327,
4674,0.0177002,0.0206055,
4676,0.0427246,0.0210144,
4678,-0.00671387,0.0207458,
4680,0.043335,0.0211182,
4682,-0.0634766,0.0216736,
4684,0.0616455,0.0222534,
4686,0.0250244,0.0224976,
4688,-0.0360107,0.0226196,
4690,0.0256348,0.0224609,
4692,-0.0512695,0.0227905,
4694,-0.00549316,0.0225159,
4696,0.012207,0.0222107,
4698,-0.010376,0.0219116,
4700,0.0482178,0.022168,
4702,-0.0250244,0.0217896,
4704,0.0164795,0.0215576,
4706,-0.000610352,0.02146,
4708,-0.0457764,0.0217102,
4710,0.0500488,0.0217957,
4712,0.0415039,0.021759,
4714,0.0109863,0.0217468,
4716,-0.0427246,0.0221313,
4718,-0.0146484,0.0220154,
4720,0.0335693,0.0220581,
4722,-0.043335,0.0223694,
4724,0.0378418,0.0227112,
4726,0.0305176,0.022876,
4728,-0.0408936,0.0231812,
4730,-0.0195313,0.0233276,
4732,0.0268555,0.0233765,
4734,0.0323486,0.0235535,
4736,0.00793457,0.0234131,
4738,-0.0262451,0.0233948,
4740,0,0.0227417,
4742,0.00976563,0.0224854,
4744,-0.0390625,0.0226318,
4746,-0.0152588,0.022522,
4748,0.00488281,0.0224854,
4750,-0.0152588,0.0223877,
4752,0.0158691,0.0224243,
4754,-0.0183105,0.0223267,
4756,0.0280762,0.0219666,
4758,-0.00915527,0.0220215,
4760,0.0164795,0.021875,
4762,0.0115967,0.0216919,
4764,0.0292969,0.0218506,
4766,-0.0152588,0.0218201,
4768,0.0421143,0.0221436,
4770,-0.000610352,0.0220825,
4772,0.00732422,0.0216003,
4774,0.00671387,0.0215393,
4776,-0.020752,0.021582,
4778,-0.0427246,0.0217834,
4780,0.010376,0.0217957,
4782,-0.010376,0.0217834,
4784,-0.0286865,0.0219971,
4786,0,0.0219116,
4788,-0.0128174,0.0217712,
4790,-0.00366211,0.0216736,
4792,0.0140381,0.0218079,
4794,0.0213623,0.0218018,
4796,0.00244141,0.0216003,
4798,-0.010376,0.0215942,
4800,0.0335693,0.021637,
4802,0.045166,0.0219666,
4804,-0.0415039,0.02229,
4806,-0.00854492,0.0218445,
4808,0.0335693,0.0220032,
4810,0.0244141,0.0220215,
4812,-0.0268555,0.0221191,
4814,0.00976563,0.0221191,
4816,-0.00610352,0.0218201,
4818,0.0109863,0.0219116,
4820,0.0354004,0.0221985,
4822,0.0170898,0.022168,
4824,-0.00427246,0.0220337,
4826,-0.00549316,0.0219604,
4828,0.0286865,0.0220825,
4830,-0.022583,0.0219849,
4832,-0.0219727,0.021936,
4834,0.0134277,0.0216797,
4836,0.00610352,0.0216248,
4838,-0.0415039,0.0217712,
4840,-0.00366211,0.0213684,
4842,0.0115967,0.0214539,
4844,0,0.0213074,
4846,0.0115967,0.0212952,
4848,0.0189209,0.0214417,
4850,-0.0286865,0.0216858,
4852,0.0244141,0.0216614,
4854,0.0170898,0.0217163,
4856,0.00366211,0.0217529,
4858,-0.0134277,0.0217285,
4860,0.0012207,0.021582,
4862,0.0115967,0.0213806,
4864,-0.0146484,0.0212524,
4866,-0.000610352,0.0210938,
4868,-0.00244141,0.0211121,
4870,0.0189209,0.0210938,
4872,-0.012207,0.0209106,
4874,0.0244141,0.0209778,
4876,0.020752,0.0207581,
4878,-0.0262451,0.0209534,
4880,0.00488281,0.0205688,
4882,0.012207,0.0200562,
4884,-0.00427246,0.0194824,
4886,-0.0244141,0.0194763,
4888,0.0183105,0.0192993,
4890,-0.00976563,0.0191406,
4892,-0.0268555,0.0188965,
4894,0.0354004,0.0191956,
4896,0.0445557,0.019519,
4898,0.0231934,0.0196472,
4900,-0.010376,0.0192688,
4902,0.055542,0.019574,
4904,-0.0457764,0.0198669,
4906,0.0152588,0.0200134,
4908,0.0231934,0.0197876,
4910,-0.0231934,0.019519,
4912,-0.0335693,0.0194397,
4914,-0.00549316,0.0193848,
4916,-0.0262451,0.01922,
4918,0.00183105,0.0190918,
4920,0.00671387,0.0188232,
4922,-0.00427246,0.0184326,
4924,0.0506592,0.0185608,
4926,0.0299072,0.0185547,
4928,-0.0628662,0.0187744,
4930,0.0250244,0.0188293,
4932,0.0256348,0.0188171,
4934,0.0323486,0.0188171,
4936,0.00915527,0.0188293,
4938,-0.0384521,0.0189514,
4940,0.0128174,0.0190796,
4942,-0.0158691,0.0191406,
4944,0.00976563,0.0188477,
4946,0.000610352,0.0187012,
4948,0.0109863,0.0187622,
4950,0.0360107,0.0189697,
4952,0.000610352,0.0188171,
4954,-0.020752,0.0188416,
4956,-0.00366211,0.0185974,
4958,0.0158691,0.0186646,
4960,0.0201416,0.0187012,
4962,0.0012207,0.0185974,
4964,-0.0616455,0.0189209,
4966,-0.0115967,0.0188843,
4968,0.000610352,0.0184692,
4970,-0.00610352,0.0185242,
4972,-0.0195313,0.0186462,
4974,0.0262451,0.0188416,
4976,0.0231934,0.018866,
4978,0.000610352,0.0184448,
4980,0.022583,0.0185669,
4982,0.0109863,0.018573,
4984,0.0244141,0.0185303,
4986,-0.00610352,0.0185913,
4988,0.000610352,0.0184692,
4990,0.0244141,0.0186768,
4992,-0.0360107,0.0188965,
4994,-0.0250244,0.0189331,
4996,0.00732422,0.0189819,
4998,-0.0164795,0.019043,
5000,0.010376,0.018811,
5002,0.0567627,0.018927,
5004,-0.0427246,0.0189392,
5006,0.0152588,0.0190063,
5008,0.0390625,0.0190613,
5010,-0.032959,0.0191467,
5012,0.00427246,0.0189209,
5014,0.00915527,0.0189148,
5016,-0.0262451,0.0191162,
5018,0.0012207,0.0190186,
5020,-0.0170898,0.0188354,
5022,-0.00488281,0.0187134,
5024,0.0238037,0.0189087,
5026,0.0170898,0.0190247,
5028,0.00732422,0.018811,
5030,0.0244141,0.0188293,
5032,0.00610352,0.0186707,
5034,0.0189209,0.0187256,
5036,-0.00671387,0.0187317,
5038,-0.0164795,0.0184814,
5040,0.00427246,0.0184875,
5042,-0.00671387,0.0184387,
5044,-0.0256348,0.0186951,
5046,-0.0274658,0.0188538,
5048,0.0128174,0.0187927,
5050,0,0.0185059,
5052,0.00549316,0.0183167,
5054,-0.00976563,0.0182434,
5056,0.00671387,0.0182739,
5058,0.0543213,0.0186829,
5060,0.0250244,0.0189209,
5062,-0.0506592,0.0193115,
5064,0.0384521,0.0195496,
5066,0.000610352,0.0195496,
5068,0.0213623,0.0197388,
5070,0.0140381,0.0196899,
5072,-0.0415039,0.0199829,
5074,0.00366211,0.0197754,
5076,0.0311279,0.0198792,
5078,-0.0396729,0.0200134,
5080,0.0360107,0.0203247,
5082,0.022583,0.0204285,
5084,-0.0402832,0.0207886,
5086,0.0292969,0.0208374,
5088,-0.00915527,0.0207458,
5090,-0.00732422,0.0207214,
5092,-0.00671387,0.02052,
5094,-0.0128174,0.0202942,
5096,0.0189209,0.0200378,
5098,0.0128174,0.0199341,
5100,-0.00366211,0.0198669,
5102,0.0231934,0.0195435,
5104,0.0457764,0.0195435,
5106,-0.0134277,0.0195251,
5108,0.00549316,0.0193481,
5110,0.00671387,0.0191833,
5112,0,0.0188477,
5114,0.0305176,0.0190979,
5116,-0.088501,0.0197205,
5118,0.012207,0.0198242,
5120,0.0134277,0.0198914,
5122,-0.0341797,0.0201904,
5124,-0.00854492,0.0197693,
5126,0.0146484,0.0196167,
5128,-0.0213623,0.0192017,
5130,-0.00244141,0.0189758,
5132,-0.012207,0.0188416,
5134,0.0195313,0.0187134,
5136,0.00671387,0.018689,
5138,-0.0305176,0.0186096,
5140,0.0476074,0.0189575,
5142,0.0250244,0.0190491,
5144,0.00366211,0.018988,
5146,0.0360107,0.019342,
5148,-0.0335693,0.0195679,
5150,0.00366211,0.0192444,
5152,0.0311279,0.0195496,
5154,-0.00305176,0.0193726,
5156,-0.0543213,0.0198792,
5158,-0.0201416,0.0199219,
5160,0.00366211,0.0197571,
5162,0.0280762,0.0200256,
5164,0.000610352,0.0194153,
5166,-0.0158691,0.019458,
5168,0.0360107,0.019812,
5170,0.00671387,0.0198181,
5172,-0.0164795,0.0197876,
5174,0.0183105,0.0197083,
5176,0.00183105,0.0194946,
5178,-0.020752,0.019696,
5180,0.00793457,0.0195496,
5182,-0.00244141,0.0194641,
5184,-0.00732422,0.0192932,
5186,0.0335693,0.0195679,
5188,0.0250244,0.019812,
5190,0.0274658,0.0198425,
5192,0.00305176,0.0195129,
5194,0.020752,0.0194702,
5196,0.00366211,0.0194336,
5198,0.00610352,0.0193298,
5200,-0.00854492,0.0193115,
5202,0.000610352,0.01875,
5204,-0.0195313,0.0185181,
5206,-0.0292969,0.0186584,
5208,0.00488281,0.0183167,
5210,-0.00183105,0.0180054,
5212,-0.00244141,0.0179871,
5214,0.0012207,0.0179077,
5216,0.012207,0.0177673,
5218,0.00976563,0.0178528,
5220,0.03479,0.0180298,
5222,0.0189209,0.0181702,
5224,-0.0183105,0.0181152,
5226,-0.0012207,0.0179565,
5228,0.0469971,0.0183533,
5230,0.00183105,0.0181274,
5232,-0.0012207,0.0180786,
5234,-0.012207,0.0180115,
5236,-0.0280762,0.0182251,
5238,0.00732422,0.0181335,
5240,0.00915527,0.0181824,
5242,-0.0219727,0.018335,
5244,-0.0280762,0.0183594,
5246,0,0.0180847,
5248,0.0213623,0.0181702,
5250,0,0.0181702,
5252,0.0866699,0.0189819,
5254,-0.0610352,0.0194946,
5256,0.0140381,0.0195679,
5258,0.0335693,0.0193604,
5260,0.0109863,0.01922,
5262,-0.0158691,0.0188721,
5264,-0.00793457,0.0185669,
5266,-0.010376,0.0186646,
5268,-0.00305176,0.0184814,
5270,0.00915527,0.0184326,
5272,-0.043335,0.0184509,
5274,0.0219727,0.018634,
5276,0.0170898,0.0184937,
5278,0.0177002,0.0182739,
5280,0.0170898,0.0180847,
5282,0.00549316,0.0179138,
5284,0.020752,0.0177185,
5286,0.00610352,0.0174866,
5288,0.0012207,0.0174072,
5290,0.0170898,0.0175049,
5292,0.0238037,0.0176758,
5294,0.0189209,0.0177368,
5296,-0.0274658,0.0178223,
5298,-0.00976563,0.0177917,
5300,0.0115967,0.0178711,
5302,0.022583,0.017865,
5304,-0.000610352,0.0174133,
5306,-0.00305176,0.0173096,
5308,0.0164795,0.0174194,
5310,0.00793457,0.0174316,
5312,-0.032959,0.0177612,
5314,0.0396729,0.0178528,
5316,-0.0518799,0.0174866,
5318,0.057373,0.0179382,
5320,-0.00183105,0.0178223,
5322,-0.0482178,0.0179626,
5324,0.0140381,0.0180176,
5326,-0.00793457,0.0179504,
5328,-0.010376,0.0178406,
5330,-0.00427246,0.0178589,
5332,-0.0115967,0.0178528,
5334,-0.00244141,0.0176819,
5336,-0.0170898,0.0177856,
5338,-0.0134277,0.0176147,
5340,0.0366211,0.0175049,
5342,0.00366211,0.0172913,
5344,-0.0012207,0.0172668,
5346,0.020752,0.0171143,
5348,0.0140381,0.0169189,
5350,0.0415039,0.0172974,
5352,-0.000610352,0.0169922,
5354,0.0164795,0.0171265,
5356,0.0415039,0.0169983,
5358,-0.0256348,0.0170532,
5360,-0.0152588,0.0171692,
5362,-0.0140381,0.0170288,
5364,-0.00366211,0.0170593,
5366,-0.0140381,0.017041,
5368,-0.0109863,0.0167908,
5370,0.0109863,0.0168335,
5372,-0.0469971,0.0171387,
5374,0.0549316,0.0175049,
5376,0.0262451,0.017749,
5378,-0.0231934,0.0177734,
5380,0.0164795,0.0178589,
5382,0.0268555,0.018103,
5384,0.0213623,0.0182434,
5386,-0.032959,0.0182373,
5388,0.00732422,0.0180603,
5390,0.00549316,0.0178406,
5392,-0.00610352,0.0178711,
5394,-0.00549316,0.0177185,
5396,-0.00610352,0.0177429,
5398,0.0231934,0.0179138,
5400,0.0140381,0.0179688,
5402,0.0268555,0.0182312,
5404,-0.0231934,0.0182678,
5406,-0.0311279,0.0182861,
5408,0.0500488,0.0187378,
5410,0.0195313,0.0189148,
5412,-0.0280762,0.0191711,
5414,0.0164795,0.0193237,
5416,-0.0146484,0.0193481,
5418,-0.000610352,0.0192566,
5420,0.0311279,0.01922,
5422,-0.0115967,0.0191467,
5424,-0.0115967,0.0190796,
5426,0.00549316,0.0191223,
5428,0.00915527,0.0187439,
5430,0.00183105,0.0187439,
5432,-0.0335693,0.0190674,
5434,0.00915527,0.0190369,
5436,0.0134277,0.0188904,
5438,0.00305176,0.0188477,
5440,0.00671387,0.0188232,
5442,0.00732422,0.0186768,
5444,0.0305176,0.0187012,
5446,-0.0201416,0.0189026,
5448,0.03479,0.0190369,
5450,0.020752,0.0192444,
5452,0.022583,0.0186035,
5454,0.0158691,0.0181519,
5456,-0.00305176,0.018042,
5458,0.010376,0.0178101,
5460,-0.0128174,0.0178284,
5462,0.00976563,0.0177673,
5464,-0.00183105,0.0177063,
5466,-0.0463867,0.0180664,
5468,-0.00488281,0.0180847,
5470,0.0256348,0.0182495,
5472,-0.00915527,0.0179077,
5474,-0.0384521,0.0180725,
5476,0.0372314,0.0182739,
5478,-0.00305176,0.0181274,
5480,0.0128174,0.0180847,
5482,-0.0238037,0.0182678,
5484,0.0262451,0.0183228,
5486,-0.0146484,0.0184082,
5488,-0.0158691,0.0185547,
5490,0.000610352,0.0183899,
5492,0.0134277,0.0182861,
5494,-0.00610352,0.018158,
5496,-0.0189209,0.0180725,
5498,0.0128174,0.018103,
5500,-0.00305176,0.0180176,
5502,0.03479,0.0181396,
5504,-0.0152588,0.0182861,
5506,-0.0421143,0.0186768,
5508,0.0354004,0.018866,
5510,0.0195313,0.0189819,
5512,-0.00427246,0.0186951,
5514,-0.000610352,0.0183044,
5516,-0.0177002,0.0179626,
5518,0.0360107,0.017749,
5520,0.0238037,0.0179688,
5522,-0.0286865,0.0177734,
5524,0.0427246,0.0180603,
5526,0.012207,0.018103,
5528,-0.0268555,0.0182678,
5530,0.0268555,0.0184937,
5532,0.0305176,0.0186829,
5534,-0.022583,0.0188843,
5536,0.0189209,0.0189026,
5538,0.0177002,0.0189453,
5540,0.0323486,0.0189026,
5542,-0.0158691,0.0190247,
5544,0.010376,0.0191162,
5546,0.020752,0.0191162,
5548,-0.0109863,0.0190857,
5550,-0.0384521,0.0190552,
5552,0.020752,0.0192566,
5554,-0.00793457,0.0191711,
5556,-0.03479,0.019104,
5558,0.010376,0.0189514,
5560,0.0146484,0.0189453,
5562,-0.022583,0.0190308,
5564,0.032959,0.0193237,
5566,-0.00793457,0.0192627,
5568,-0.00549316,0.0192078,
5570,0.0360107,0.019458,
5572,-0.0146484,0.0191345,
5574,0.00854492,0.0186707,
5576,-0.0128174,0.0185364,
5578,-0.00793457,0.0183838,
5580,0.00976563,0.0183167,
5582,0.00427246,0.0180908,
5584,0.00305176,0.0179077,
5586,0.020752,0.0177856,
5588,-0.00305176,0.0177429,
5590,0.0115967,0.017804,
5592,0.0311279,0.0180542,
5594,0.00488281,0.0180481,
5596,0.00671387,0.0180542,
5598,0.032959,0.0181519,
5600,-0.00671387,0.0180786,
5602,0.00915527,0.0179016,
5604,-0.00305176,0.0177002,
5606,-0.0158691,0.0175476,
5608,0.0177002,0.0172241,
5610,-0.00793457,0.0171082,
5612,-0.00183105,0.0168457,
5614,-0.00244141,0.0167053,
5616,-0.0219727,0.0167786,
5618,0.0250244,0.0170227,
5620,0.0158691,0.0168701,
5622,-0.0128174,0.0168823,
5624,0.0201416,0.0169678,
5626,0.0140381,0.0170532,
5628,0.00732422,0.0170349,
5630,0.0219727,0.0172363,
5632,-0.0134277,0.0170349,
5634,0.00366211,0.01698,
5636,0.0317383,0.0171631,
5638,0.000610352,0.0171387,
5640,0.000610352,0.0170776,
5642,0.0183105,0.0171875,
5644,0.0189209,0.0170715,
5646,0.00915527,0.0169617,
5648,0.00671387,0.0166809,
5650,0.00244141,0.0164978,
5652,0.0140381,0.0164124,
5654,0.0012207,0.0162659,
5656,-0.0231934,0.0164673,
5658,0.00244141,0.0163879,
5660,0.010376,0.0163635,
5662,-0.0140381,0.0164063,
5664,0.0170898,0.0165588,
5666,-0.00488281,0.0161438,
5668,0.012207,0.016217,
5670,0.0354004,0.0163147,
5672,0.0012207,0.0162354,
5674,0.0323486,0.0161743,
5676,0.00976563,0.0158997,
5678,0.0231934,0.0161011,
5680,0.0305176,0.0162781,
5682,0.0360107,0.0164001,
5684,0.03479,0.0164856,
5686,0.00732422,0.0164124,
5688,0,0.0162537,
5690,0.0366211,0.0166138,
5692,0.032959,0.0168091,
5694,0.0158691,0.0169067,
5696,0.0115967,0.0168335,
5698,0.0128174,0.0168335,
5700,-0.0244141,0.0170471,
5702,0.012207,0.0168213,
5704,0.0134277,0.016803,
5706,-0.0274658,0.0166565,
5708,0.0183105,0.0164856,
5710,0.00793457,0.0163696,
5712,-0.0390625,0.0167175,
5714,0.00549316,0.0167664,
5716,-0.0140381,0.0167297,
5718,0.0219727,0.0165894,
5720,0.0286865,0.0166382,
5722,-0.0250244,0.0166016,
5724,-0.000610352,0.0161804,
5726,0.0231934,0.0162903,
5728,-0.00244141,0.0160461,
5730,0.0189209,0.0159668,
5732,0.0146484,0.0158081,
5734,0.0311279,0.0158936,
5736,0.00305176,0.0157349,
5738,0.0115967,0.0156738,
5740,0.00671387,0.0154175,
5742,0,0.0152588,
5744,0.0201416,0.0153564,
5746,0.0152588,0.0153015,
5748,0.0109863,0.0153015,
5750,-0.0354004,0.015271,
5752,0.0384521,0.015448,
5754,0.0250244,0.0156189,
5756,-0.0292969,0.015564,
5758,0.0128174,0.0155884,
5760,0.00549316,0.0154968,
5762,-0.00976563,0.0153687,
5764,-0.00610352,0.0151001,
5766,-0.0476074,0.0154968,
5768,0.00671387,0.015509,
5770,0.0012207,0.0151611,
5772,-0.0457764,0.0154724,
5774,0,0.015387,
5776,0.00976563,0.0153564,
5778,-0.00976563,0.0153748,
5780,-0.0152588,0.0154297,
5782,0.0177002,0.015564,
5784,0.00793457,0.0156128,
5786,0.0140381,0.0155457,
5788,-0.0152588,0.0156677,
5790,0.00305176,0.0155823,
5792,0.0238037,0.015509,
5794,-0.0177002,0.0156372,
5796,0.0012207,0.0155823,
5798,0.0152588,0.0154053,
5800,-0.012207,0.0154602,
5802,0.0317383,0.015686,
5804,-0.0299072,0.0159546,
5806,-0.0189209,0.0159851,
5808,0.0317383,0.0161255,
5810,0.0177002,0.0162231,
5812,-0.0231934,0.0164368,
5814,0.012207,0.0165344,
5816,-0.022583,0.0165405,
5818,0.00793457,0.0163696,
5820,0.0164795,0.0163757,
5822,-0.03479,0.0165955,
5824,0.0170898,0.0165649,
5826,0.0128174,0.0165527,
5828,-0.0183105,0.0166626,
5830,-0.00305176,0.0164734,
5832,0.00305176,0.0163696,
5834,0.0115967,0.016449,
5836,0.0250244,0.0163818,
5838,-0.00305176,0.0164063,
5840,0.020752,0.0166077,
5842,0.0244141,0.0166687,
5844,-0.012207,0.0166016,
5846,0.0390625,0.0169006,
5848,0.0189209,0.0170227,
5850,-0.0231934,0.0172302,
5852,0.0341797,0.0174316,
5854,-0.00549316,0.0174744,
5856,-0.0201416,0.0174438,
5858,0.0134277,0.0175537,
5860,0.0164795,0.0176147,
5862,0.00549316,0.0175293,
5864,0.00244141,0.0173828,
5866,-0.0402832,0.0177368,
5868,-0.00854492,0.0177002,
5870,0.0128174,0.0174744,
5872,-0.0354004,0.0178162,
5874,-0.0170898,0.0176636,
5876,-0.00549316,0.0176208,
5878,-0.0164795,0.0175537,
5880,-0.00366211,0.0172852,
5882,0.0115967,0.017041,
5884,0.0268555,0.0169617,
5886,0.0592041,0.0174805,
5888,-0.0109863,0.0175903,
5890,-0.00976563,0.0173218,
5892,0.00366211,0.0170288,
5894,0.022583,0.0170959,
5896,-0.0140381,0.0171204,
5898,-0.0299072,0.0172913,
5900,-0.0213623,0.0172607,
5902,-0.00305176,0.0171692,
5904,0.00732422,0.0171082,
5906,0.00854492,0.0169189,
5908,0.0323486,0.0170593,
5910,-0.0360107,0.0173401,
5912,0,0.0169495,
5914,0.0140381,0.0170349,
5916,-0.0244141,0.0171387,
5918,-0.00793457,0.0169983,
5920,-0.00183105,0.0167297,
5922,-0.0256348,0.0167358,
5924,-0.00610352,0.0167908,
5926,-0.0170898,0.0167297,
5928,-0.00366211,0.0167419,
5930,0.0183105,0.0167358,
5932,-0.00305176,0.0166199,
5934,0.00366211,0.0163452,
5936,0.00244141,0.0163391,
5938,-0.00976563,0.0163208,
5940,-0.0134277,0.0163879,
5942,0.0250244,0.0166382,
5944,0.010376,0.0165405,
5946,0.00244141,0.0164124,
5948,0.00366211,0.0163391,
5950,0.00488281,0.0160339,
5952,-0.00305176,0.0156799,
5954,0,0.0154297,
5956,-0.0189209,0.0153259,
5958,0.0250244,0.015448,
5960,0.0189209,0.0155823,
5962,0.00305176,0.0155151,
5964,-0.00488281,0.0155029,
5966,-0.0177002,0.0152039,
5968,0.0109863,0.0152466,
5970,0.012207,0.0153564,
5972,-0.0262451,0.0151611,
5974,-0.00366211,0.0151978,
5976,-0.00244141,0.0151245,
5978,-0.0152588,0.0151794,
5980,0.0170898,0.0151978,
5982,-0.00305176,0.0150513,
5984,-0.00915527,0.0150635,
5986,0.0274658,0.0151978,
5988,0.012207,0.0151672,
5990,-0.0213623,0.0153503,
5992,0.0164795,0.0152771,
5994,-0.00915527,0.0151917,
5996,0.00427246,0.0152222,
5998,0.0146484,0.0152161,
6000,-0.00915527,0.0151855,
6002,0.0170898,0.0150391,
6004,0.00976563,0.0148376,
6006,-0.00183105,0.0146667,
6008,0.00976563,0.014447,
6010,0.0280762,0.0145508,
6012,-0.0140381,0.0144592,
6014,-0.00976563,0.0144348,
6016,-0.0195313,0.0144043,
6018,0.00549316,0.0143799,
6020,0.00610352,0.0142761,
6022,-0.0183105,0.0141113,
6024,0,0.0139404,
6026,-0.00244141,0.0138367,
6028,-0.00305176,0.0136841,
6030,0.0238037,0.0138916,
6032,-0.00366211,0.0138977,
6034,0.00854492,0.0138672,
6036,0.0152588,0.0137695,
6038,-0.00244141,0.0137634,
6040,-0.00732422,0.0136292,
6042,0.0201416,0.0135864,
6044,0.00793457,0.0135437,
6046,0.00488281,0.0132019,
6048,0.0378418,0.0133911,
6050,-0.0012207,0.0131714,
6052,-0.00488281,0.0128784,
6054,0.00305176,0.012854,
6056,0.0134277,0.0127869,
6058,0.00915527,0.0127441,
6060,0.00427246,0.0126221,
6062,-0.0396729,0.0129639,
6064,0.00305176,0.01297,
6066,-0.00854492,0.0126526,
6068,0.0012207,0.0125793,
6070,0.00915527,0.0125427,
6072,-0.0280762,0.0124695,
6074,0.0170898,0.0124695,
6076,-0.00488281,0.0124634,
6078,-0.00610352,0.0123596,
6080,0.020752,0.0125305,
6082,-0.00671387,0.0124817,
6084,0.000610352,0.0122192,
6086,0.0201416,0.0118286,
6088,-0.0140381,0.0118591,
6090,0.00427246,0.0118042,
6092,0.0238037,0.0120056,
6094,-0.00549316,0.0118347,
6096,-0.0183105,0.0118774,
6098,0.00793457,0.0116577,
6100,-0.0164795,0.0116089,
6102,0.0262451,0.0118408,
6104,0.00183105,0.0117859,
6106,-0.0244141,0.0119446,
6108,0.0195313,0.0118164,
6110,0.00549316,0.0115112,
6112,-0.00793457,0.0115906,
6114,0.0238037,0.0116882,
6116,0.00488281,0.0114929,
6118,-0.0012207,0.0114258,
6120,0.00183105,0.0114258,
6122,-0.0012207,0.0111816,
6124,0.0109863,0.0112305,
6126,0.010376,0.0111633,
6128,-0.0164795,0.0112915,
6130,-0.00854492,0.0111938,
6132,0.00915527,0.0112549,
6134,0.00854492,0.0113037,
6136,0.00427246,0.011322,
6138,-0.0134277,0.0113586,
6140,-0.00915527,0.0113159,
6142,0.0115967,0.0111816,
6144,0.00854492,0.0111633,
6146,-0.0115967,0.0112549,
6148,0.00854492,0.0113037,
6150,-0.0146484,0.0114014,
6152,0.0286865,0.0116577,
6154,0.0146484,0.0118042,
6156,-0.0378418,0.0119934,
6158,0.0372314,0.0121155,
6160,-0.00366211,0.0119629,
6162,-0.0128174,0.0120605,
6164,-0.000610352,0.0120178,
6166,-0.0152588,0.0119934,
6168,0.00671387,0.0119507,
6170,0,0.0118286,
6172,-0.0250244,0.0118164,
6174,0.020752,0.0119873,
6176,0.00732422,0.0120361,
6178,-0.00549316,0.0119385,
6180,0.0164795,0.0119324,
6182,0.00244141,0.0119263,
6184,-0.000610352,0.0118408,
6186,0.0189209,0.0117554,
6188,0.00244141,0.0116577,
6190,-0.0152588,0.0115967,
6192,0.0250244,0.0116821,
6194,0.0170898,0.0117615,
6196,-0.00610352,0.0117798,
6198,0.000610352,0.0116394,
6200,0.00305176,0.0115784,
6202,0.0463867,0.0118713,
6204,0.0244141,0.0120178,
6206,0.00976563,0.0120972,
6208,-0.0268555,0.0122681,
6210,0.0250244,0.0122375,
6212,-0.00671387,0.0121643,
6214,0.0152588,0.0122192,
6216,-0.0238037,0.012262,
6218,-0.0109863,0.0123169,
6220,0,0.0122559,
6222,-0.0268555,0.0123413,
6224,0.0109863,0.0124512,
6226,0.0201416,0.0126282,
6228,-0.010376,0.0127014,
6230,0.00976563,0.012561,
6232,0.0115967,0.0126404,
6234,-0.00732422,0.0126282,
6236,0.00976563,0.0125732,
6238,-0.0164795,0.0127136,
6240,-0.00244141,0.0126648,
6242,0.0177002,0.0126404,
6244,0.00427246,0.0126038,
6246,-0.010376,0.0126587,
6248,0.00732422,0.0123535,
6250,-0.0164795,0.0125061,
6252,0.0274658,0.0127319,
6254,0.00854492,0.0127869,
6256,-0.00305176,0.0126831,
6258,0.0189209,0.0127808,
6260,0.012207,0.0128601,
6262,-0.00183105,0.0124817,
6264,0.00671387,0.0125183,
6266,-0.00183105,0.0124512,
6268,0.0164795,0.0126038,
6270,0.00976563,0.0126099,
6272,-0.0177002,0.0125061,
6274,0.00671387,0.0124023,
6276,-0.00854492,0.012439,
6278,0.00427246,0.0124207,
6280,0.0164795,0.0123779,
6282,-0.00427246,0.0123535,
6284,0.00915527,0.012439,
6286,-0.00793457,0.0123169,
6288,0.00488281,0.0122253,
6290,-0.00671387,0.0122498,
6292,0.0140381,0.0121521,
6294,-0.0140381,0.0122375,
6296,-0.010376,0.0121582,
6298,0.00732422,0.0121521,
6300,0.00610352,0.0120483,
6302,0.0146484,0.0119324,
6304,0.00976563,0.0120117,
6306,-0.0354004,0.0121216,
6308,0.0384521,0.0123108,
6310,0.00793457,0.0123352,
6312,-0.0152588,0.0124084,
6314,0.00488281,0.0122192,
6316,-0.0152588,0.012323,
6318,0.0109863,0.0124207,
6320,0.0134277,0.0125366,
6322,-0.0128174,0.0126526,
6324,-0.000610352,0.0125488,
6326,0.0231934,0.012677,
6328,0.0183105,0.0126953,
6330,0.00244141,0.0126343,
6332,-0.00671387,0.0126099,
6334,0,0.0125244,
6336,0.0140381,0.0126221,
6338,-0.0012207,0.0125,
6340,-0.0146484,0.0125549,
6342,0.0164795,0.0126038,
6344,-0.0146484,0.0126648,
6346,-0.00366211,0.0125854,
6348,-0.00793457,0.0125793,
6350,0.00244141,0.0124573,
6352,-0.000610352,0.0121765,
6354,0.00427246,0.0120728,
6356,-0.0219727,0.0119141,
6358,0.0152588,0.0116943,
6360,-0.000610352,0.0116638,
6362,-0.00793457,0.011615,
6364,0.0213623,0.0118225,
6366,-0.00366211,0.0117065,
6368,0.010376,0.0117432,
6370,0.0238037,0.0119812,
6372,-0.020752,0.0119385,
6374,0.00793457,0.0118103,
6376,0.0231934,0.011969,
6378,-0.0012207,0.0119263,
6380,0.0158691,0.0119202,
6382,0.0140381,0.0120361,
6384,0.000610352,0.0120361,
6386,0.0170898,0.0120178,
6388,-0.020752,0.0122009,
6390,0,0.0120483,
6392,0.0219727,0.0120178,
6394,-0.00488281,0.0118958,
6396,-0.022583,0.0120605,
6398,0,0.0120544,
6400,0.00183105,0.0120422,
6402,0.0134277,0.0117126,
6404,0.0238037,0.0117065,
6406,-0.0292969,0.0119019,
6408,0.0256348,0.0118896,
6410,0.0231934,0.0118713,
6412,-0.00793457,0.0118835,
6414,0.0134277,0.0118652,
6416,-0.020752,0.0118347,
6418,0.012207,0.0118469,
6420,0.0128174,0.0119751,
6422,-0.00854492,0.011792,
6424,-0.0128174,0.0118103,
6426,0.0146484,0.0117554,
6428,0,0.0116516,
6430,0.00244141,0.0115784,
6432,0.00671387,0.0115295,
6434,0.00732422,0.0115295,
6436,0.022583,0.0116577,
6438,-0.0012207,0.0115051,
6440,-0.00854492,0.0115662,
6442,0.0317383,0.0117065,
6444,0.0213623,0.0118774,
6446,-0.00854492,0.0118591,
6448,0.00488281,0.0118347,
6450,0.0012207,0.0116821,
6452,0.00976563,0.0115051,
6454,0.00732422,0.0114929,
6456,-0.0305176,0.0117676,
6458,0.0158691,0.0117371,
6460,-0.00244141,0.0116394,
6462,-0.00854492,0.0117065,
6464,0.0177002,0.0118164,
6466,-0.00976563,0.0118958,
6468,0.0170898,0.0119019,
6470,0.0213623,0.0120178,
6472,-0.0189209,0.01203,
6474,-0.00732422,0.0120361,
6476,0.0323486,0.0122742,
6478,-0.0128174,0.0123596,
6480,-0.00793457,0.0122742,
6482,-0.00610352,0.0122925,
6484,-0.0140381,0.0123413,
6486,0.00366211,0.0122986,
6488,-0.0109863,0.0123596,
6490,-0.00976563,0.0123901,
6492,0.0115967,0.0123657,
6494,0.00305176,0.0122559,
6496,-0.00183105,0.0121704,
6498,0.00976563,0.0121948,
6500,-0.0140381,0.0122742,
6502,0.0305176,0.0124329,
6504,0.0268555,0.0126038,
6506,-0.00244141,0.0122742,
6508,0.00488281,0.0119385,
6510,0.0128174,0.0119873,
6512,0.00183105,0.011853,
6514,0.0183105,0.0119873,
6516,-0.0158691,0.0119934,
6518,0.00793457,0.0119629,
6520,0.0189209,0.0120178,
6522,-0.0195313,0.012085,
6524,-0.00305176,0.0121094,
6526,0.0109863,0.0119873,
6528,0.00793457,0.0118835,
6530,0.00366211,0.0118958,
6532,-0.00488281,0.0118774,
6534,0.00854492,0.0119629,
6536,0.00915527,0.0119141,
6538,-0.0286865,0.0121887,
6540,0.00793457,0.0121216,
6542,0.0335693,0.0122925,
6544,-0.0183105,0.0123291,
6546,-0.0134277,0.0124268,
6548,0.022583,0.0125732,
6550,-0.010376,0.0126526,
6552,0.00671387,0.0127136,
6554,0.000610352,0.012677,
6556,-0.0250244,0.0127075,
6558,0.0213623,0.0127686,
6560,-0.00610352,0.0128235,
6562,-0.00915527,0.0128357,
6564,0.00732422,0.0126953,
6566,0.00549316,0.0127136,
6568,-0.00671387,0.012677,
6570,0.0323486,0.0127625,
6572,-0.0134277,0.0126892,
6574,0.00183105,0.0126282,
6576,0.0268555,0.0126648,
6578,-0.020752,0.0128601,
6580,0.00549316,0.0127563,
6582,0.00488281,0.0126648,
6584,-0.00488281,0.0127075,
6586,0.00732422,0.0126099,
6588,0.0115967,0.0125183,
6590,-0.0146484,0.0126648,
6592,0.0317383,0.0127625,
6594,-0.0109863,0.0128235,
6596,0.00305176,0.0126282,
6598,0.00976563,0.0127258,
6600,-0.0201416,0.0129089,
6602,-0.0012207,0.0127869,
6604,0.0158691,0.0127075,
6606,-0.0305176,0.0127197,
6608,0.022583,0.0126892,
6610,0.0152588,0.0126099,
6612,0.00610352,0.0125916,
6614,0.0213623,0.0126709,
6616,-0.00549316,0.0125183,
6618,0.0146484,0.0125427,
6620,0.0360107,0.0127747,
6622,-0.0213623,0.0129028,
6624,0.00183105,0.012793,
6626,0.0317383,0.0129639,
6628,-0.0195313,0.0131592,
6630,-0.00610352,0.0131958,
6632,0.00732422,0.0132019,
6634,0.010376,0.0132324,
6636,0.00854492,0.013092,
6638,-0.00549316,0.0131348,
6640,-0.0128174,0.0131775,
6642,0.0189209,0.0130493,
6644,0.00610352,0.0128967,
6646,0.00488281,0.0128601,
6648,0.00793457,0.0128906,
6650,-0.00549316,0.0129333,
6652,0.022583,0.0130615,
6654,0.0268555,0.0132568,
6656,-0.020752,0.0131592,
6658,0.0231934,0.0132324,
6660,0.00427246,0.0132507,
6662,-0.0140381,0.0133057,
6664,0.012207,0.0132507,
6666,0.00549316,0.013208,
6668,-0.00610352,0.0130981,
6670,0.00854492,0.01297,
6672,-0.0231934,0.0130127,
6674,0.0177002,0.0131165,
6676,0.00915527,0.0128845,
6678,-0.00610352,0.0128174,
6680,-0.00305176,0.0127686,
6682,0.022583,0.0129333,
6684,-0.00305176,0.0128235,
6686,0.00732422,0.0128601,
6688,0.00610352,0.0128113,
6690,-0.0128174,0.0128418,
6692,0.00305176,0.0127563,
6694,0.00976563,0.0128235,
6696,-0.00610352,0.0128662,
6698,0.00915527,0.0128601,
6700,-0.0219727,0.0129395,
6702,0.0170898,0.0128052,
6704,0.0268555,0.0128052,
6706,-0.010376,0.0128845,
6708,0.0189209,0.0130249,
6710,0.0256348,0.0131531,
6712,-0.0115967,0.0132507,
6714,0.0177002,0.0132446,
6716,-0.00976563,0.0131836,
6718,0.010376,0.013208,
6720,0.00976563,0.0131165,
6722,-0.0299072,0.0132202,
6724,0.00671387,0.0132568,
6726,0.0134277,0.0132813,
6728,0.00732422,0.0132751,
6730,0.00549316,0.0132935,
6732,0.00366211,0.0132813,
6734,0.012207,0.0133179,
6736,0.0274658,0.013501,
6738,-0.00244141,0.0132385,
6740,-0.0170898,0.0133301,
6742,0.0146484,0.0131409,
6744,0.00671387,0.0130249,
6746,-0.0183105,0.0130737,
6748,0.0140381,0.0129883,
6750,0,0.0128845,
6752,0.0170898,0.0129883,
6754,0.0274658,0.0132568,
6756,-0.0518799,0.0135254,
6758,0.0262451,0.0135742,
6760,0.00793457,0.0135925,
6762,-0.0134277,0.0136353,
6764,0.012207,0.0136841,
6766,-0.0292969,0.0139221,
6768,-0.00549316,0.0139099,
6770,0.0219727,0.0138062,
6772,-0.010376,0.0137756,
6774,-0.0012207,0.0137695,
6776,0.0115967,0.0136169,
6778,-0.00244141,0.0134338,
6780,0,0.0133789,
6782,0.00244141,0.0133545,
6784,-0.0164795,0.0134705,
6786,0.022583,0.013623,
6788,-0.010376,0.0136108,
6790,-0.0183105,0.0136475,
6792,0.022583,0.0135559,
6794,0.00549316,0.013501,
6796,-0.00915527,0.013562,
6798,0.0128174,0.0135925,
6800,0.00732422,0.0134644,
6802,0.0268555,0.0137207,
6804,0.0689697,0.0142517,
6806,-0.0238037,0.0141846,
6808,-0.00366211,0.0139954,
6810,0.00244141,0.0138672,
6812,0.00183105,0.0138245,
6814,0.00244141,0.0136353,
6816,-0.0280762,0.0138611,
6818,-0.0256348,0.0139709,
6820,-0.010376,0.0137146,
6822,-0.0323486,0.0138245,
6824,-0.00366211,0.0138428,
6826,0.012207,0.0136475,
6828,0.00427246,0.0134949,
6830,0.00366211,0.0134705,
6832,0.0158691,0.0135559,
6834,-0.0115967,0.0135681,
6836,0.00915527,0.0135742,
6838,0.012207,0.0136414,
6840,-0.0152588,0.0136658,
6842,0.0170898,0.0136475,
6844,-0.00366211,0.013623,
6846,-0.0109863,0.0136841,
6848,0.0109863,0.0137146,
6850,-0.0109863,0.0137695,
6852,0.00488281,0.0135925,
6854,0.0280762,0.0136047,
6856,-0.00671387,0.0134644,
6858,0.022583,0.0134583,
6860,-0.00427246,0.0134583,
6862,0.000610352,0.013324,
6864,0.0280762,0.0134827,
6866,0.0140381,0.0135681,
6868,-0.0323486,0.0138306,
6870,0.0268555,0.0140137,
6872,0.0012207,0.0137939,
6874,0.00854492,0.0137024,
6876,0,0.0136108,
6878,-0.00854492,0.0136353,
6880,-0.00732422,0.013678,
6882,0.0134277,0.0135864,
6884,-0.00549316,0.0136108,
6886,0.0012207,0.0135498,
6888,-0.000610352,0.0134949,
6890,-0.0286865,0.0136536,
6892,0.0115967,0.013739,
6894,0.0128174,0.0137695,
6896,-0.00610352,0.0137695,
6898,0.0115967,0.0137939,
6900,0.00793457,0.0136536,
6902,0.0189209,0.0136719,
6904,0.0238037,0.0136414,
6906,-0.0292969,0.0138306,
6908,0.03479,0.0139893,
6910,0.00183105,0.0137512,
6912,-0.00854492,0.0137207,
6914,0.00549316,0.0135986,
6916,-0.0115967,0.0136169,
6918,0.000610352,0.0135193,
6920,0.0012207,0.0134338,
6922,-0.0109863,0.0132446,
6924,0.000610352,0.0131836,
6926,0.0457764,0.0135071,
6928,-0.0170898,0.0136047,
6930,0.00549316,0.0136047,
6932,0.00244141,0.0135925,
6934,0.0146484,0.0136169,
6936,0.00183105,0.0133606,
6938,0.00305176,0.0133667,
6940,-0.0231934,0.0134277,
6942,0.00915527,0.0133728,
6944,0.00305176,0.0133362,
6946,-0.0152588,0.0133057,
6948,0.0134277,0.0132996,
6950,0.00427246,0.0133423,
6952,0.0238037,0.0134094,
6954,0.00732422,0.013208,
6956,-0.0140381,0.0128296,
6958,0.0189209,0.0127563,
6960,0.0115967,0.012793,
6962,-0.00549316,0.0127136,
6964,0.00427246,0.0126343,
6966,-0.00488281,0.0123901,
6968,0.00610352,0.0123962,
6970,0.0268555,0.0124451,
6972,-0.00915527,0.0124329,
6974,0.000610352,0.0124268,
6976,0.0274658,0.0125854,
6978,0.0189209,0.0127502,
6980,-0.012207,0.0128723,
6982,0.0219727,0.0130676,
6984,-0.0158691,0.0130615,
6986,0.010376,0.0129395,
6988,-0.00793457,0.012915,
6990,-0.0183105,0.012915,
6992,0.0158691,0.0128479,
6994,-0.0128174,0.0129211,
6996,-0.0109863,0.0129395,
6998,0.0244141,0.0130554,
7000,-0.0146484,0.0131287,
7002,0.00793457,0.0129395,
7004,0.0201416,0.0124512,
7006,-0.0164795,0.0123779,
7008,0.0158691,0.0125,
7010,0.000610352,0.0124817,
7012,-0.0109863,0.0125732,
7014,0.0280762,0.0128296,
7016,-0.00549316,0.0126038,
7018,-0.00610352,0.0124084,
7020,-0.000610352,0.0123108,
7022,0.012207,0.0121094,
7024,-0.00183105,0.0120911,
7026,0.00976563,0.0120667,
7028,0.00427246,0.0120667,
7030,0.020752,0.0122375,
7032,0.022583,0.0123047,
7034,0.00915527,0.0122803,
7036,-0.0189209,0.0123779,
7038,0.0140381,0.0123962,
7040,-0.00183105,0.012262,
7042,0.00976563,0.0121887,
7044,-0.0213623,0.0123657,
7046,-0.0177002,0.0124329,
7048,0.00305176,0.0123535,
7050,-0.0158691,0.0124023,
7052,0.000610352,0.0123596,
7054,0.0213623,0.0122925,
7056,-0.0286865,0.0125122,
7058,0.0378418,0.0126648,
7060,0.00488281,0.0126709,
7062,-0.00366211,0.0127014,
7064,0.00427246,0.0124634,
7066,0.00183105,0.0123413,
7068,0.00671387,0.012085,
7070,0.012207,0.0119385,
7072,-0.0158691,0.012085,
7074,-0.00976563,0.0120972,
7076,0.0219727,0.0123169,
7078,0.0244141,0.0124756,
7080,-0.00854492,0.0124878,
7082,0.00610352,0.0124146,
7084,0.00183105,0.0123779,
7086,0.0335693,0.0127014,
7088,0.00305176,0.0127258,
7090,-0.0299072,0.012738,
7092,0.00854492,0.0127075,
7094,0.0170898,0.0127502,
7096,-0.0128174,0.0128174,
7098,0.00549316,0.0127563,
7100,0.00244141,0.0127014,
7102,-0.000610352,0.0125183,
7104,0.0158691,0.012439,
7106,-0.00976563,0.0122437,
7108,0.00610352,0.0119568,
7110,0.0109863,0.0120483,
7112,-0.00183105,0.0119812,
7114,0.032959,0.0122559,
7116,-0.0219727,0.0123596,
7118,0.0109863,0.0124634,
7120,0.0146484,0.0125977,
7122,-0.00427246,0.0125305,
7124,0.0012207,0.0125366,
7126,0.00793457,0.0121582,
7128,-0.00976563,0.012085,
7130,-0.00854492,0.0121155,
7132,0.0158691,0.0122498,
7134,-0.00244141,0.0121277,
7136,0.0146484,0.0122559,
7138,0.00976563,0.012323,
7140,-0.00915527,0.0121826,
7142,0.0183105,0.0122742,
7144,0.0231934,0.0124756,
7146,-0.0146484,0.0124695,
7148,0.00854492,0.0124207,
7150,-0.00244141,0.0124023,
7152,0,0.0121643,
7154,0.0189209,0.0122803,
7156,-0.0140381,0.0122803,
7158,0.0146484,0.0122375,
7160,0.0158691,0.0122803,
7162,-0.00671387,0.0122925,
7164,0.0170898,0.0124207,
7166,0.00549316,0.0124268,
7168,-0.00610352,0.0124268,
7170,0.0341797,0.0125,
7172,-0.00854492,0.0124939,
7174,-0.0128174,0.012616,
7176,0.00732422,0.0124146,
7178,0.000610352,0.0122314,
7180,0,0.0121094,
7182,-0.00549316,0.0119446,
7184,0.00427246,0.0118286,
7186,0.00610352,0.0117859,
7188,-0.00305176,0.0117371,
7190,-0.0170898,0.0117249,
7192,0.0170898,0.0117371,
7194,0.0164795,0.0117737,
7196,-0.00549316,0.0117188,
7198,0.0152588,0.0116272,
7200,-0.00976563,0.0115784,
7202,0.0250244,0.0117493,
7204,0.0244141,0.011792,
7206,-0.0323486,0.0119507,
7208,0.0195313,0.0119873,
7210,0.0164795,0.012146,
7212,-0.0189209,0.0122253,
7214,-0.0012207,0.0119568,
7216,0.00610352,0.0119629,
7218,-0.00854492,0.0119873,
7220,0.00427246,0.0120239,
7222,-0.00976563,0.0119995,
7224,-0.00549316,0.0120361,
7226,0.0146484,0.012085,
7228,-0.0012207,0.0120544,
7230,-0.0109863,0.0119568,
7232,0.00671387,0.0117981,
7234,-0.00549316,0.0117615,
7236,0.00427246,0.011615,
7238,0.0140381,0.011615,
7240,-0.0250244,0.0118469,
7242,0.0256348,0.0120056,
7244,0.0164795,0.0119568,
7246,0.00244141,0.0118042,
7248,0.00732422,0.0118469,
7250,0.000610352,0.0116943,
7252,0.0268555,0.0119568,
7254,0.0146484,0.0118896,
7256,-0.00915527,0.0116943,
7258,0.00183105,0.0113342,
7260,0.00793457,0.0113647,
7262,-0.00793457,0.0114075,
7264,0.0164795,0.0115295,
7266,-0.00854492,0.0115967,
7268,-0.0213623,0.0117432,
7270,0.00915527,0.0117126,
7272,0.0231934,0.0117859,
7274,-0.0305176,0.0119934,
7276,0.00244141,0.0117981,
7278,-0.00183105,0.0115723,
7280,0.00244141,0.0115112,
7282,-0.00610352,0.0115112,
7284,-0.00366211,0.0115295,
7286,0,0.0111938,
7288,0.00732422,0.0112366,
7290,-0.00610352,0.0109985,
7292,0.0177002,0.0110901,
7294,-0.00305176,0.0109497,
7296,-0.00549316,0.0108765,
7298,0.010376,0.0109253,
7300,-0.00183105,0.0109192,
7302,0.00915527,0.0110046,
7304,0.020752,0.0110535,
7306,-0.0164795,0.0111206,
7308,0.00793457,0.0111389,
7310,0.00183105,0.0110474,
7312,0.00549316,0.011084,
7314,0.00732422,0.0108276,
7316,0.00854492,0.0106934,
7318,0.00305176,0.010614,
7320,0.0170898,0.0106384,
7322,-0.012207,0.0107178,
7324,0.00549316,0.0107605,
7326,0.032959,0.0110107,
7328,0.022583,0.0111389,
7330,-0.0164795,0.0112183,
7332,0.00183105,0.0110779,
7334,0.00854492,0.0111389,
7336,0.00610352,0.0110535,
7338,0.0250244,0.0112061,
7340,-0.0299072,0.0114136,
7342,0.0164795,0.0113953,
7344,-0.00732422,0.0112366,
7346,-0.0128174,0.0112183,
7348,0.012207,0.0112549,
7350,-0.0195313,0.0114258,
7352,0.00366211,0.0114624,
7354,0.00244141,0.0112976,
7356,-0.0299072,0.0114563,
7358,0.00976563,0.0114075,
7360,0.00610352,0.0113098,
7362,0.0012207,0.0112549,
7364,0.0012207,0.0110962,
7366,0.0317383,0.0113586,
7368,-0.0146484,0.0114441,
7370,0.0238037,0.0113403,
7372,0.0189209,0.0114441,
7374,-0.0244141,0.0115601,
7376,0.0140381,0.0116272,
7378,0.00488281,0.0116699,
7380,-0.00671387,0.0117371,
7382,0.00366211,0.0117188,
7384,-0.0183105,0.0118591,
7386,0.00793457,0.0118774,
7388,0.0128174,0.0119751,
7390,-0.00976563,0.0119019,
7392,0.0280762,0.0120117,
7394,0.0183105,0.01203,
7396,0,0.0119751,
7398,0.0115967,0.0119385,
7400,0.0012207,0.011853,
7402,0.00549316,0.0116577,
7404,0.0164795,0.0115784,
7406,-0.020752,0.0114624,
7408,0.00305176,0.0112976,
7410,0.00671387,0.0112,
7412,-0.00793457,0.0110901,
7414,-0.0219727,0.0112976,
7416,0.022583,0.0114624,
7418,0.00671387,0.0114441,
7420,0.012207,0.0115234,
7422,-0.00183105,0.0114441,
7424,-0.00854492,0.0114746,
7426,0.0213623,0.0115417,
7428,0.00915527,0.0116211,
7430,-0.00793457,0.0115906,
7432,0.020752,0.011731,
7434,-0.0164795,0.0118408,
7436,0.00793457,0.0118774,
7438,0.0146484,0.0118835,
7440,-0.00915527,0.0117249,
7442,0.0183105,0.0116516,
7444,0.00793457,0.0115662,
7446,-0.0146484,0.0116882,
7448,0.0213623,0.0118286,
7450,-0.00305176,0.011853,
7452,0.0012207,0.0115967,
7454,0.0183105,0.0116333,
7456,-0.0250244,0.011792,
7458,0.00915527,0.0118652,
7460,0.0152588,0.0119385,
7462,-0.00610352,0.0119202,
7464,0.00732422,0.0118286,
7466,0.0177002,0.0119202,
7468,0.0170898,0.0118774,
7470,-0.00366211,0.0118225,
7472,0.00488281,0.0116394,
7474,-0.00366211,0.0113708,
7476,0.0146484,0.0114929,
7478,-0.00549316,0.0115295,
7480,-0.0146484,0.0116516,
7482,0.0170898,0.0117615,
7484,0.00732422,0.0117981,
7486,0.0305176,0.0121033,
7488,0.0286865,0.0123169,
7490,-0.0378418,0.0126343,
7492,0.0213623,0.0126709,
7494,0.0201416,0.0128418,
7496,-0.0164795,0.0129517,
7498,-0.00366211,0.0128845,
7500,-0.0256348,0.0131226,
7502,-0.010376,0.0131348,
7504,0.00305176,0.0129578,
7506,-0.0152588,0.0129456,
7508,-0.00244141,0.0128906,
7510,0.0146484,0.0130188,
7512,0.0012207,0.0129761,
7514,0.0115967,0.0130188,
7516,-0.00305176,0.0129639,
7518,-0.000610352,0.0129395,
7520,0.00976563,0.0128662,
7522,-0.00244141,0.0127686,
7524,-0.0115967,0.0128296,
7526,0.0115967,0.012616,
7528,0.00427246,0.0124329,
7530,-0.00732422,0.0123413,
7532,0.0134277,0.0124573,
7534,0.00671387,0.012439,
7536,0.0256348,0.0126343,
7538,0.0286865,0.0126709,
7540,-0.0445557,0.0128174,
7542,0.0280762,0.0129333,
7544,0.00915527,0.0129517,
7546,-0.00488281,0.0128723,
7548,-0.00244141,0.0127747,
7550,-0.0195313,0.0127747,
7552,0.00183105,0.0127563,
7554,0.0146484,0.0128784,
7556,-0.00793457,0.0126587,
7558,0.00427246,0.0126038,
7560,0.0250244,0.012793,
7562,0.00427246,0.0128235,
7564,0.0292969,0.0131042,
7566,-0.00976563,0.0128845,
7568,-0.0109863,0.0128479,
7570,0.0219727,0.0128296,
7572,-0.0177002,0.0128174,
7574,-0.0152588,0.0127258,
7576,0.00427246,0.0126282,
7578,-0.012207,0.0127014,
7580,-0.0189209,0.0128235,
7582,0.00427246,0.0128296,
7584,-0.000610352,0.0126526,
7586,0.0177002,0.0127502,
7588,0.0170898,0.012793,
7590,-0.0177002,0.0128723,
7592,0.010376,0.0126953,
7594,0,0.0125122,
7596,-0.00488281,0.012561,
7598,0.00427246,0.0124878,
7600,-0.0134277,0.0126099,
7602,0.010376,0.0126587,
7604,0.0323486,0.0128174,
7606,-0.0201416,0.0128113,
7608,0.0128174,0.0129089,
7610,0.0146484,0.0129883,
7612,0.0170898,0.0130798,
7614,0.0012207,0.0128723,
7616,0.00427246,0.0126892,
7618,-0.00366211,0.0126587,
7620,0.00976563,0.0126343,
7622,-0.00793457,0.0126953,
7624,-0.00915527,0.0127014,
7626,0.0378418,0.0128662,
7628,-0.00915527,0.0128662,
7630,-0.00549316,0.0128418,
7632,0.022583,0.0128601,
7634,-0.00610352,0.0127563,
7636,0.0231934,0.0129089,
7638,0.00183105,0.0127808,
7640,-0.0213623,0.0129028,
7642,0.0268555,0.0129883,
7644,0.00183105,0.0129272,
7646,-0.00854492,0.0128662,
7648,0.00427246,0.0126953,
7650,-0.00854492,0.0127502,
7652,0.000610352,0.0127441,
7654,0.0189209,0.0127502,
7656,-0.0152588,0.0126526,
7658,0.00549316,0.012616,
7660,-0.00915527,0.0125549,
7662,0.0158691,0.0126526,
7664,0.00366211,0.012616,
7666,0.0134277,0.0125732,
7668,-0.00366211,0.012439,
7670,0.000610352,0.0124084,
7672,0.0201416,0.012561,
7674,-0.0164795,0.0126892,
7676,0.020752,0.0127502,
7678,0.0134277,0.0128296,
7680,-0.0115967,0.0127991,
7682,0.0213623,0.0128418,
7684,-0.0299072,0.0130676,
7686,0.0195313,0.0129578,
7688,0.012207,0.012793,
7690,-0.0183105,0.0125977,
7692,0.0109863,0.0124939,
7694,0.00244141,0.0123169,
7696,-0.0109863,0.012262,
7698,0.00915527,0.0123169,
7700,-0.00793457,0.0121399,
7702,0.00854492,0.0121216,
7704,0.0177002,0.0122681,
7706,-0.00976563,0.0122131,
7708,0.0109863,0.0122986,
7710,0.0140381,0.0122925,
7712,0.00732422,0.0123535,
7714,0.00671387,0.0123047,
7716,0.00793457,0.0123535,
7718,0,0.0123474,
7720,0.0115967,0.0123657,
7722,-0.00244141,0.0123657,
7724,-0.00915527,0.0123413,
7726,0.0323486,0.0125488,
7728,-0.00793457,0.0125854,
7730,-0.0219727,0.0127319,
7732,0.0134277,0.0127319,
7734,0.00915527,0.0127563,
7736,-0.00610352,0.012561,
7738,-0.00671387,0.0123413,
7740,-0.0183105,0.0120789,
7742,0.00244141,0.0118225,
7744,0.0128174,0.0118591,
7746,-0.022583,0.0120361,
7748,-0.00488281,0.0120605,
7750,-0.012207,0.0119873,
7752,-0.00549316,0.0120239,
7754,0.03479,0.0122253,
7756,-0.0164795,0.0123108,
7758,-0.00854492,0.0123535,
7760,0.00732422,0.0121765,
7762,0.012207,0.0122559,
7764,0.0134277,0.0120972,
7766,-0.00305176,0.01203,
7768,-0.00671387,0.0119873,
7770,0.0128174,0.0118958,
7772,-0.000610352,0.0117249,
7774,-0.0134277,0.0117065,
7776,0.0231934,0.0118958,
7778,0.0146484,0.0119202,
7780,-0.0170898,0.0119019,
7782,0.0201416,0.0120605,
7784,-0.0213623,0.0122681,
7786,0.0152588,0.0122437,
7788,0.0323486,0.0123962,
7790,-0.0213623,0.0124329,
7792,0.00305176,0.0123596,
7794,-0.00488281,0.0124084,
7796,0.00427246,0.0124023,
7798,0.00976563,0.0124573,
7800,-0.0189209,0.0125122,
7802,-0.00305176,0.012439,
7804,0.00427246,0.0121582,
7806,-0.0134277,0.0120911,
7808,0.0128174,0.0120911,
7810,-0.0140381,0.012085,
7812,0.00183105,0.0119324,
7814,0.00366211,0.0119568,
7816,-0.0012207,0.0119263,
7818,0.00549316,0.0119446,
7820,0.0140381,0.0119873,
7822,-0.0012207,0.0119202,
7824,-0.0134277,0.0119629,
7826,0.0238037,0.0118225,
7828,0.00305176,0.0117615,
7830,-0.00732422,0.0117798,
7832,0.0213623,0.0117676,
7834,-0.0164795,0.0118713,
7836,0.00976563,0.0117371,
7838,0.0134277,0.011853,
7840,-0.0292969,0.0119324,
7842,0.0128174,0.011792,
7844,0.00488281,0.0118225,
7846,-0.00427246,0.0117798,
7848,0.00915527,0.0118286,
7850,0.0134277,0.0118774,
7852,-0.00244141,0.0118958,
7854,0.0280762,0.0119873,
7856,-0.00671387,0.0119019,
7858,0.00183105,0.0118652,
7860,0.0164795,0.0119385,
7862,-0.0164795,0.0119446,
7864,0.00244141,0.0119324,
7866,-0.00183105,0.0118164,
7868,-0.0109863,0.0118896,
7870,0,0.0118835,
7872,0.0109863,0.011792,
7874,0.00183105,0.0116455,
7876,0.00488281,0.0114868,
7878,0.012207,0.0114746,
7880,0.00427246,0.0114014,
7882,0.0195313,0.0113831,
7884,-0.00549316,0.0111389,
7886,-0.00366211,0.0109802,
7888,0.0170898,0.0110291,
7890,-0.0170898,0.0110168,
7892,0.0152588,0.0110596,
7894,-0.0012207,0.0110474,
7896,-0.00976563,0.0110352,
7898,0.0128174,0.0110718,
7900,0.00549316,0.0110474,
7902,-0.00549316,0.0110168,
7904,0.0268555,0.0111084,
7906,-0.00427246,0.0110535,
7908,-0.00854492,0.0110291,
7910,0.0109863,0.0109985,
7912,0.000610352,0.0109314,
7914,-0.00305176,0.0108948,
7916,-0.0140381,0.0109558,
7918,0.0012207,0.010968,
7920,0.0012207,0.0108643,
7922,0.00305176,0.0108704,
7924,-0.0189209,0.010968,
7926,0.0244141,0.0108887,
7928,0.0146484,0.0109558,
7930,-0.010376,0.0108398,
7932,0.0280762,0.0109863,
7934,-0.00732422,0.010968,
7936,0.0177002,0.011084,
7938,0.0164795,0.0111816,
7940,-0.0201416,0.0112,
7942,0.0183105,0.0113586,
7944,0.00793457,0.0113098,
7946,-0.00183105,0.0111023,
7948,0.020752,0.011261,
7950,0.0012207,0.0111511,
7952,0.00427246,0.0111389,
7954,0.0244141,0.0110352,
7956,0.0012207,0.0108826,
7958,-0.0152588,0.0109497,
7960,0.0109863,0.0109863,
7962,0.00305176,0.0108948,
7964,-0.00610352,0.0108215,
7966,0.0109863,0.0109009,
7968,-0.0109863,0.0109436,
7970,0.00671387,0.0108826,
7972,0.00183105,0.0108948,
7974,-0.00854492,0.0108459,
7976,0.0250244,0.0108643,
7978,0.00488281,0.0107666,
7980,-0.00671387,0.0106628,
7982,0.00549316,0.0105164,
7984,-0.0115967,0.0104187,
7986,0.0128174,0.0103943,
7988,0.0158691,0.0102295,
7990,-0.0238037,0.0102539,
7992,0.0146484,0.0103699,
7994,0.0128174,0.0104492,
7996,-0.0177002,0.0105835,
7998,0.012207,0.0106079,
8000,-0.00549316,0.0104736,
8002,0.0109863,0.010553,
8004,0.0183105,0.0106934,
8006,-0.012207,0.0106812,
8008,-0.00183105,0.0105713,
8010,0.00976563,0.0105286,
8012,0.00549316,0.0105652,
8014,0.010376,0.0106323,
8016,0.0183105,0.0108032,
8018,0,0.0107483,
8020,0.0219727,0.0108276,
8022,0.0195313,0.0110107,
8024,-0.0231934,0.0111084,
8026,0.0274658,0.011145,
8028,0.010376,0.0112183,
8030,-0.0146484,0.0112915,
8032,0.0158691,0.0112366,
8034,-0.0152588,0.0112244,
8036,-0.00671387,0.0111938,
8038,0.0152588,0.0112122,
8040,-0.00854492,0.0110046,
8042,0.0170898,0.0110474,
8044,0,0.0109985,
8046,-0.00610352,0.0110168,
8048,0.0189209,0.0111145,
8050,-0.00732422,0.0110535,
8052,0.0012207,0.0110413,
8054,0.0183105,0.0109436,
8056,-0.0109863,0.0109863,
8058,-0.0238037,0.0112061,
8060,0.0140381,0.0111816,
8062,-0.000610352,0.0110229,
8064,-0.0012207,0.0110107,
8066,0.00976563,0.0110901,
8068,-0.0152588,0.0111328,
8070,0.010376,0.0112366,
8072,0.0134277,0.011261,
8074,-0.0274658,0.0115173,
8076,0.0164795,0.0116333,
8078,0.00793457,0.0115906,
8080,-0.0268555,0.0118164,
8082,0.020752,0.0118286,
8084,-0.0195313,0.011969,
8086,0.00854492,0.0120178,
8088,0.0219727,0.0120667,
8090,-0.0183105,0.0120789,
8092,0.0262451,0.0121887,
8094,-0.010376,0.0122803,
8096,-0.000610352,0.0121887,
8098,0.0195313,0.0122559,
8100,0.00732422,0.0122742,
8102,-0.00366211,0.0122559,
8104,0.0195313,0.0121826,
8106,-0.00549316,0.0121948,
8108,0,0.0121094,
8110,0.0250244,0.0122498,
8112,-0.00549316,0.0122986,
8114,0.00488281,0.0123169,
8116,0.010376,0.0122803,
8118,0.00244141,0.0122925,
8120,0.00732422,0.0123535,
8122,0.0109863,0.0124329,
8124,-0.0292969,0.0125366,
8126,0.022583,0.0125183,
8128,0.00976563,0.0124695,
8130,-0.0128174,0.0124939,
8132,0.010376,0.0123169,
8134,-0.010376,0.0123474,
8136,0.00915527,0.012262,
8138,0.0146484,0.0122437,
8140,-0.0158691,0.0122009,
8142,0.010376,0.0121216,
8144,0.00366211,0.0120789,
8146,-0.0012207,0.0120728,
8148,0.00793457,0.0119446,
8150,-0.00976563,0.01203,
8152,-0.00915527,0.0120789,
8154,0.0109863,0.0119446,
8156,-0.00976563,0.01203,
8158,-0.00732422,0.0119507,
8160,0.0140381,0.0119812,
8162,0.00671387,0.0120178,
8164,-0.00793457,0.0120361,
8166,0.00976563,0.0120239,
8168,0.0109863,0.0120239,
8170,0.0231934,0.0121887,
8172,0.00793457,0.0122498,
8174,0.00427246,0.012207,
8176,0.00915527,0.0120483,
8178,0.0219727,0.0122192,
8180,-0.0012207,0.0121643,
8182,0.0109863,0.0122192,
8184,-0.0195313,0.0122986,
8186,0.00183105,0.0121887,
8188,0.00915527,0.0121216,
8190,-0.0256348,0.0121399,
8192,0.000610352,0.0119995,
8194,-0.00183105,0.0118896,
8196,-0.012207,0.0118347,
8198,0.00549316,0.0117676,
8200,0.00854492,0.0117981,
8202,0.0134277,0.0118225,
8204,0.0317383,0.0119568,
8206,-0.0152588,0.0119873,
8208,-0.0115967,0.012085,
8210,0.0457764,0.0124451,
8212,0.00244141,0.0124146,
8214,-0.00854492,0.0123962,
8216,-0.0115967,0.0123291,
8218,-0.00610352,0.0123901,
8220,0.00366211,0.012207,
8222,-0.00183105,0.01203,
8224,-0.0262451,0.0120605,
8226,0.010376,0.0118896,
8228,0.00793457,0.0118652,
8230,-0.00549316,0.0117737,
8232,0.00732422,0.0116882,
8234,-0.00854492,0.0116211,
8236,0.0109863,0.0116638,
8238,0.0256348,0.0117676,
8240,-0.0213623,0.0118958,
8242,0.010376,0.0118286,
8244,0.00915527,0.0119202,
8246,-0.00793457,0.0119385,
8248,0.0128174,0.0118774,
8250,0.00244141,0.0118286,
8252,0.010376,0.0119202,
8254,0.0012207,0.0117493,
8256,-0.00427246,0.0116821,
8258,-0.010376,0.0115479,
8260,0.0213623,0.0116211,
8262,-0.00366211,0.0116516,
8264,-0.00183105,0.0116577,
8266,0.0140381,0.0117004,
8268,-0.0140381,0.0116882,
8270,-0.00305176,0.011615,
8272,0.0152588,0.0116333,
8274,-0.00976563,0.0114563,
8276,0.00671387,0.0113586,
8278,0.0012207,0.0112915,
8280,-0.0140381,0.0111633,
8282,0.00915527,0.0110474,
8284,-0.010376,0.0109558,
8286,0.00671387,0.0109375,
8288,0.0164795,0.0108826,
8290,-0.0146484,0.0108459,
8292,0.0134277,0.0107178,
8294,0.0109863,0.0107239,
8296,-0.00305176,0.0107483,
8298,0.00793457,0.0106323,
8300,0.00671387,0.0106262,
8302,0.00305176,0.0106201,
8304,0.0177002,0.0106018,
8306,-0.00610352,0.0106079,
8308,0.0109863,0.0107178,
8310,0.0286865,0.0107544,
8312,0.0140381,0.0108398,
8314,-0.0152588,0.0109436,
8316,0.0274658,0.0111145,
8318,-0.00549316,0.011145,
8320,0.00854492,0.0111572,
8322,0.00183105,0.0110657,
8324,-0.0262451,0.0110352,
8326,0.00915527,0.0109009,
8328,-0.0115967,0.0109192,
8330,-0.0115967,0.010907,
8332,-0.0012207,0.0108154,
8334,-0.00610352,0.0107727,
8336,0.00305176,0.0107117,
8338,0.00976563,0.0106628,
8340,-0.0256348,0.0107605,
8342,0.0195313,0.0108521,
8344,0.00671387,0.0108826,
8346,-0.00305176,0.0109009,
8348,0.012207,0.0109436,
8350,0.00427246,0.0108887,
8352,0.00305176,0.0108276,
8354,0.0213623,0.0109314,
8356,0.00610352,0.0108948,
8358,-0.00915527,0.0109131,
8360,0.03479,0.0111206,
8362,0.00976563,0.0111511,
8364,-0.0158691,0.0112305,
8366,0.0238037,0.0113708,
8368,0.000610352,0.0112671,
8370,0.00854492,0.0111206,
8372,-0.000610352,0.0110474,
8374,-0.0213623,0.0112183,
8376,0.0109863,0.0112366,
8378,-0.00488281,0.0110657,
8380,-0.0109863,0.0111633,
8382,0.0115967,0.0111694,
8384,-0.00732422,0.0110474,
8386,-0.00915527,0.0111206,
8388,0.00244141,0.0110535,
8390,-0.00915527,0.0108887,
8392,0.00183105,0.0109009,
8394,0.00793457,0.0109619,
8396,-0.0109863,0.0109497,
8398,0.00305176,0.0109253,
8400,0.00732422,0.0109131,
8402,0.00671387,0.0108459,
8404,0.0152588,0.0106812,
8406,-0.00732422,0.0106018,
8408,-0.00305176,0.0105164,
8410,0.0250244,0.0103088,
8412,0.00732422,0.0103577,
8414,0.00549316,0.0103271,
8416,0.00610352,0.0102722,
8418,0.00793457,0.0102905,
8420,-0.00488281,0.0103027,
8422,0.0219727,0.0105042,
8424,-0.0183105,0.0104248,
8426,0.0152588,0.0104736,
8428,0.000610352,0.0104004,
8430,-0.0195313,0.0105408,
8432,-0.00671387,0.0105347,
8434,-0.0201416,0.0106506,
8436,0.00488281,0.0105896,
8438,0.0170898,0.0105042,
8440,-0.0250244,0.0105408,
8442,0.00610352,0.010498,
8444,0.00915527,0.010498,
8446,0.00488281,0.0104675,
8448,0.00427246,0.0103821,
8450,0.00549316,0.0104126,
8452,0.00854492,0.0103943,
8454,0.020752,0.0105896,
8456,-0.00793457,0.0106262,
8458,-0.0109863,0.0106323,
8460,0.020752,0.0106262,
8462,-0.0012207,0.0106018,
8464,-0.0115967,0.0106995,
8466,0.00671387,0.0106262,
8468,-0.00915527,0.0105774,
8470,0.00549316,0.0106018,
8472,0.00366211,0.0104858,
8474,-0.00976563,0.0104858,
8476,0.0286865,0.0107056,
8478,0.00610352,0.0107544,
8480,-0.00488281,0.0106628,
8482,0.0140381,0.0107117,
8484,0.000610352,0.010614,
8486,0.0189209,0.0107361,
8488,0.0268555,0.0108398,
8490,-0.00976563,0.010791,
8492,0.00793457,0.0107361,
8494,0.00732422,0.0106995,
8496,-0.0164795,0.0108337,
8498,0.00793457,0.0108337,
8500,0.00366211,0.0108032,
8502,-0.00915527,0.0108643,
8504,-0.0012207,0.0106995,
8506,-0.00183105,0.0106567,
8508,-0.0115967,0.0106628,
8510,0.022583,0.0106018,
8512,0.000610352,0.0104675,
8514,0.00549316,0.0103699,
8516,0.020752,0.0103027,
8518,0.010376,0.0103516,
8520,0.0115967,0.0103821,
8522,0.0115967,0.0104797,
8524,-0.0244141,0.0104614,
8526,0.0262451,0.0106323,
8528,0.00671387,0.0105835,
8530,-0.0262451,0.01073,
8532,0.0115967,0.0108337,
8534,-0.00427246,0.0108154,
8536,0.00244141,0.0108093,
8538,0.0134277,0.0108459,
8540,-0.00915527,0.0106812,
8542,0.00671387,0.010553,
8544,0.022583,0.0107117,
8546,0.00183105,0.0106995,
8548,-0.00915527,0.0106689,
8550,0.00671387,0.0106934,
8552,-0.00305176,0.0106934,
8554,0.032959,0.0108093,
8556,-0.0115967,0.0108643,
8558,-0.0134277,0.010907,
8560,0.0164795,0.0107239,
8562,0.00183105,0.0106445,
8564,-0.00671387,0.010553,
8566,0.00610352,0.010376,
8568,-0.00793457,0.0104492,
8570,0.00854492,0.0104492,
8572,0.0170898,0.010614,
8574,-0.0152588,0.010553,
8576,0.022583,0.0106689,
8578,0.0183105,0.0108032,
8580,-0.0115967,0.0108093,
8582,0.0158691,0.0108521,
8584,-0.0012207,0.010791,
8586,0.0134277,0.0108337,
8588,0.0201416,0.0110107,
8590,-0.00976563,0.0110168,
8592,-0.00305176,0.0110291,
8594,0.0128174,0.0110779,
8596,-0.00549316,0.0110229,
8598,0.00854492,0.0110779,
8600,0.00427246,0.0110474,
8602,-0.012207,0.0111023,
8604,0.0012207,0.0109619,
8606,-0.000610352,0.0108948,
8608,-0.00427246,0.010907,
8610,0.020752,0.0108643,
8612,-0.00976563,0.0108887,
8614,-0.0238037,0.0110718,
8616,0.0195313,0.0112061,
8618,-0.00305176,0.0111572,
8620,0.00976563,0.0112061,
8622,0.0012207,0.0109985,
8624,-0.0292969,0.0111084,
8626,0.00854492,0.0110413,
8628,0.0109863,0.011145,
8630,-0.00915527,0.0110413,
8632,0.00427246,0.0110168,
8634,-0.0109863,0.0109253,
8636,0.0134277,0.0110107,
8638,0.0244141,0.011084,
8640,-0.0177002,0.0110107,
8642,0.0109863,0.0110596,
8644,0.022583,0.0111938,
8646,-0.0158691,0.0113037,
8648,0.00854492,0.0113464,
8650,0.0134277,0.0114258,
8652,-0.00793457,0.0114197,
8654,0.00488281,0.011261,
8656,-0.00549316,0.0112366,
8658,-0.0109863,0.0112366,
8660,0.00976563,0.0111267,
8662,0.00854492,0.0112,
8664,-0.00488281,0.0111328,
8666,0.0195313,0.011261,
8668,-0.0128174,0.0112976,
8670,0.0177002,0.0114197,
8672,0.0109863,0.0114929,
8674,-0.0115967,0.0115112,
8676,0.0274658,0.011499,
8678,-0.0115967,0.011554,
8680,-0.00244141,0.0115295,
