Felipe_C-L01
Gráfico creado el:2026-06-10 18:52:01.272
Registro en:2026-06-10 18:52:23.659
2 mseg/muestras
2 canales
EMG
mV
EMG Integrado
mV-sec
milliSec,CH1,CH40,
,261808 samples,261808 samples,
0,-0.00244141,2.44141E-05,
2,-0.00244141,4.88281E-05,
4,0.010376,0.000152588,
6,-0.00305176,0.000183105,
8,0.00671387,0.000250244,
10,-0.00244141,0.000274658,
12,-0.012207,0.000396729,
14,0.0177002,0.00057373,
16,0.0012207,0.000585937,
18,-0.00244141,0.000610352,
20,0.00915527,0.000701904,
22,-0.0012207,0.000714111,
24,0.0109863,0.000823975,
26,0.0140381,0.000964355,
28,-0.0115967,0.00108032,
30,0.0140381,0.0012207,
32,-0.000610352,0.00122681,
34,-0.00854492,0.00131226,
36,0.0164795,0.00147705,
38,0.00305176,0.00150757,
40,0,0.00150757,
42,0.0195313,0.00170288,
44,-0.00610352,0.00176392,
46,0.00305176,0.00179443,
48,0.012207,0.0019165,
50,-0.00183105,0.00193481,
52,0.0109863,0.00204468,
54,-0.00366211,0.0020813,
56,-0.00671387,0.00214844,
58,0.010376,0.0022522,
60,0.00244141,0.00227661,
62,-0.00549316,0.00233154,
64,0.0170898,0.00250244,
66,0.010376,0.0026062,
68,-0.0128174,0.00273438,
70,0.00305176,0.00276489,
72,-0.00183105,0.0027832,
74,0.0115967,0.00289917,
76,0.00732422,0.00297241,
78,-0.0189209,0.00316162,
80,0.012207,0.00328369,
82,0.00305176,0.00331421,
84,-0.00793457,0.00339355,
86,0.0128174,0.00352173,
88,-0.0012207,0.00353394,
90,0.00366211,0.00357056,
92,-0.000610352,0.00357666,
94,-0.00549316,0.00363159,
96,0.00610352,0.00369263,
98,0.00671387,0.00375977,
100,-0.00183105,0.00377808,
102,0.00793457,0.00385742,
104,-0.000610352,0.00386353,
106,-0.00915527,0.00395508,
108,0.0140381,0.00409546,
110,0.00244141,0.00411987,
112,-0.010376,0.00422363,
114,0.012207,0.0043457,
116,0.00488281,0.00439453,
118,-0.010376,0.00449829,
120,0.0177002,0.00467529,
122,-0.00549316,0.00473022,
124,0.0140381,0.00487061,
126,0.00244141,0.00489502,
128,-0.0134277,0.0050293,
130,0.022583,0.00525513,
132,-0.00671387,0.00532227,
134,-0.0134277,0.00545654,
136,0.00427246,0.00549927,
138,-0.00305176,0.00552979,
140,0.00183105,0.0055481,
142,0.00854492,0.00563354,
144,-0.0128174,0.00576172,
146,0.00671387,0.00582886,
148,0.00793457,0.0059082,
150,0.00244141,0.00593262,
152,0.00305176,0.00596313,
154,0.00793457,0.00604248,
156,0.00854492,0.00612793,
158,0.010376,0.00623169,
160,-0.012207,0.00635376,
162,0.00427246,0.00639648,
164,0.0250244,0.00664673,
166,0.0128174,0.0067749,
168,-0.010376,0.00687866,
170,0.00488281,0.00692749,
172,-0.00305176,0.00695801,
174,0.0115967,0.00707397,
176,0.0170898,0.00724487,
178,-0.0262451,0.00750732,
180,0.0152588,0.00765991,
182,0.00305176,0.00769043,
184,-0.0134277,0.00782471,
186,0.00183105,0.00784302,
188,0.0012207,0.00785522,
190,0.0115967,0.00797119,
192,0.000610352,0.00797729,
194,-0.0177002,0.0081543,
196,-0.0012207,0.0081665,
198,0.0152588,0.00831909,
200,-0.00427246,0.0083374,
202,0.000610352,0.00831909,
204,0.00793457,0.00829468,
206,0.00427246,0.00830688,
208,0.0109863,0.00834961,
210,-0.00427246,0.00836792,
212,0.00793457,0.0083252,
214,0.0231934,0.00838013,
216,-0.00732422,0.00844116,
218,-0.00488281,0.00846558,
220,0.0164795,0.00853882,
222,-0.00976563,0.00862427,
224,0.00793457,0.00859375,
226,0.00427246,0.00849609,
228,-0.0164795,0.00854492,
230,0.020752,0.00861206,
232,0.00244141,0.00863037,
234,0.00305176,0.00857544,
236,0.0213623,0.00862427,
238,-0.0115967,0.00870972,
240,0.020752,0.00891724,
242,0.0170898,0.00889282,
244,-0.00183105,0.0088501,
246,0.0177002,0.00899658,
248,0.0189209,0.00906372,
250,-0.0115967,0.00916138,
252,0.00244141,0.00907593,
254,0.010376,0.00914307,
256,-0.00549316,0.00913086,
258,0.010376,0.00913086,
260,-0.0183105,0.00928955,
262,-0.0164795,0.00939941,
264,0.012207,0.00935059,
266,0.00366211,0.00928345,
268,-0.00915527,0.00924683,
270,0.00732422,0.00928955,
272,-0.00549316,0.00932617,
274,0.00854492,0.00929565,
276,0.00915527,0.00931396,
278,-0.012207,0.00924683,
280,0.0189209,0.00931396,
282,0.00366211,0.00932007,
284,-0.000610352,0.00924683,
286,0.0152588,0.00927124,
288,0.00488281,0.00930786,
290,0.010376,0.009375,
292,0.0109863,0.00947876,
294,-0.00854492,0.00950928,
296,0.00549316,0.00950317,
298,0.0170898,0.00960693,
300,-0.00427246,0.00963135,
302,-0.00915527,0.00964355,
304,0.0115967,0.00975342,
306,-0.00854492,0.00974731,
308,0.00976563,0.00970459,
310,-0.0109863,0.00979004,
312,-0.00427246,0.009729,
314,0.0146484,0.00975342,
316,0.00854492,0.00979004,
318,-0.010376,0.00979004,
320,0.00976563,0.00971069,
322,-0.00549316,0.00971069,
324,0.0189209,0.00975952,
326,0.0219727,0.00995483,
328,-0.00976563,0.00991821,
330,-0.0012207,0.00970459,
332,0.00366211,0.00967407,
334,-0.00183105,0.00955811,
336,-0.0012207,0.00952759,
338,-0.00427246,0.00953979,
340,0.0115967,0.00963745,
342,0.0146484,0.00969849,
344,-0.0128174,0.00969849,
346,0.0128174,0.00975952,
348,0.0177002,0.00985718,
350,-0.000610352,0.00983887,
352,0.0012207,0.00982056,
354,0.0158691,0.0098999,
356,-0.0140381,0.00995483,
358,0.00488281,0.0098999,
360,-0.00549316,0.00983276,
362,-0.00305176,0.00982056,
364,0.0128174,0.00969849,
366,0.00244141,0.00959473,
368,-0.00732422,0.00956421,
370,0.0164795,0.00968018,
372,-0.00366211,0.00968628,
374,0.00305176,0.00960083,
376,0.0201416,0.00963135,
378,-0.0134277,0.00950317,
380,0.0134277,0.00948486,
382,0.00427246,0.00949707,
384,-0.00915527,0.00945435,
386,0.00915527,0.00952759,
388,0.00915527,0.00960693,
390,0.00427246,0.00953369,
392,0.00427246,0.00957031,
394,-0.00488281,0.00944214,
396,0.012207,0.009552,
398,0.0115967,0.00951538,
400,0.00732422,0.0095459,
402,0.00732422,0.00961304,
404,0.00793457,0.00961304,
406,-0.000610352,0.00957642,
408,0.0158691,0.00962524,
410,0.00976563,0.00968018,
412,-0.0115967,0.0097168,
414,0.0134277,0.00961914,
416,0.00793457,0.00962524,
418,-0.00183105,0.00959473,
420,0.0128174,0.00955811,
422,-0.0152588,0.00961304,
424,0.00732422,0.00960693,
426,0.0189209,0.00975342,
428,-0.0140381,0.009729,
430,0.00427246,0.00956421,
432,0.00366211,0.00957642,
434,0.000610352,0.009552,
436,0.010376,0.00944214,
438,-0.00366211,0.00936279,
440,0.00854492,0.00924072,
442,0.0128174,0.009198,
444,-0.00610352,0.00924072,
446,0.00976563,0.00916138,
448,0.0134277,0.00910645,
450,0.0012207,0.00900269,
452,0.00366211,0.00901489,
454,0.00610352,0.00897217,
456,0.00244141,0.00894165,
458,0.010376,0.00894165,
460,0.00366211,0.00879517,
462,-0.00610352,0.00869141,
464,0.020752,0.00877686,
466,0.00854492,0.00882568,
468,-0.00366211,0.00877075,
470,0.00854492,0.00878296,
472,0.00976563,0.00882568,
474,0.00915527,0.00883179,
476,0.00976563,0.00883789,
478,-0.00244141,0.00874023,
480,0.0231934,0.00878296,
482,0.00366211,0.00878296,
484,-0.012207,0.00889893,
486,0.010376,0.0088501,
488,0.00671387,0.00886841,
490,0.00183105,0.00878296,
492,0.0134277,0.00880737,
494,-0.0170898,0.00889282,
496,0.00610352,0.00889893,
498,0.020752,0.00893555,
500,-0.00610352,0.00895386,
502,0.00610352,0.00892334,
504,0.0109863,0.00891724,
506,-0.00183105,0.0088501,
508,0.00671387,0.00881958,
510,0.00305176,0.00874023,
512,-0.00671387,0.00876465,
514,0.0146484,0.00876465,
516,0.00488281,0.00872803,
518,-0.00732422,0.00869751,
520,0.0152588,0.00875244,
522,-0.00732422,0.00877075,
524,0.0109863,0.00869141,
526,0.0128174,0.00859985,
528,-0.0152588,0.00865479,
530,0.020752,0.0088501,
532,0.00915527,0.00890503,
534,0,0.00888672,
536,0.00671387,0.00894165,
538,-0.0012207,0.00891113,
540,0.012207,0.00891724,
542,0.0213623,0.00898438,
544,-0.0152588,0.00900879,
546,0.00610352,0.00894165,
548,-0.00427246,0.00880737,
550,-0.000610352,0.00880737,
552,0.00305176,0.00882568,
554,0.00549316,0.00872192,
556,-0.0012207,0.00859375,
558,0.0158691,0.00870361,
560,-0.00183105,0.00866699,
562,-0.010376,0.00874023,
564,0.0256348,0.00886841,
566,0.012207,0.00896606,
568,-0.00854492,0.00897827,
570,0.0170898,0.00898438,
572,-0.022583,0.00917358,
574,0.00915527,0.00923462,
576,0.010376,0.00913696,
578,-0.0219727,0.00922241,
580,0.00976563,0.00918579,
582,-0.00244141,0.00916748,
584,-0.00915527,0.00916748,
586,0.0177002,0.00925293,
588,-0.0109863,0.00927124,
590,0.00793457,0.00930786,
592,0.0152588,0.00941772,
594,-0.0128174,0.00949707,
596,0.00976563,0.00947266,
598,0.00671387,0.00942383,
600,-0.00549316,0.00940552,
602,0.00427246,0.009375,
604,0.00488281,0.00934448,
606,-0.00305176,0.0093689,
608,0.00610352,0.00927124,
610,-0.0012207,0.00918579,
612,-0.00244141,0.00909424,
614,0.00976563,0.00905762,
616,-0.000610352,0.00898438,
618,-0.00427246,0.00900879,
620,0.0109863,0.00899048,
622,-0.0115967,0.00895386,
624,0.00732422,0.00895386,
626,0.0140381,0.00890503,
628,-0.00854492,0.0088501,
630,0.00610352,0.00886841,
632,0.00366211,0.00886841,
634,-0.00244141,0.00888672,
636,0.0146484,0.00892944,
638,0.000610352,0.00889893,
640,-0.00976563,0.00891113,
642,0.00732422,0.0088562,
644,0.00488281,0.00884399,
646,0.00427246,0.00878906,
648,0.00488281,0.00870361,
650,-0.000610352,0.00869751,
652,-0.0152588,0.00881348,
654,0.0152588,0.00890503,
656,-0.00488281,0.00892944,
658,0,0.00882568,
660,-0.00793457,0.00886841,
662,-0.00488281,0.0088562,
664,0.0115967,0.00876465,
666,0.00549316,0.00873413,
668,-0.00732422,0.00877075,
670,0.00427246,0.00872803,
672,-0.00366211,0.00866699,
674,0.010376,0.0086792,
676,0.00305176,0.00861206,
678,-0.0250244,0.00883789,
680,0.0164795,0.00877075,
682,0.000610352,0.00874023,
684,-0.00976563,0.00871582,
686,0.010376,0.00871582,
688,-0.00671387,0.00871582,
690,0.012207,0.00881958,
692,0.0256348,0.00894165,
694,-0.0183105,0.00895386,
696,0.00244141,0.00891724,
698,0.0146484,0.0088562,
700,-0.00244141,0.00881958,
702,0.00427246,0.00880127,
704,0.00976563,0.00878906,
706,-0.00610352,0.00883179,
708,0.0146484,0.00891113,
710,-0.00549316,0.00893555,
712,0,0.00886841,
714,0.0146484,0.00886841,
716,0.00793457,0.00889893,
718,-0.00671387,0.00889282,
720,0.0189209,0.00892944,
722,-0.00671387,0.00892334,
724,0.00366211,0.0088501,
726,0.020752,0.00892944,
728,-0.0128174,0.00890503,
730,0.0134277,0.00883179,
732,-0.00732422,0.00881348,
734,-0.00732422,0.00888672,
736,0.0115967,0.00893555,
738,-0.0140381,0.00906372,
740,0.0201416,0.00914307,
742,0.00671387,0.00899658,
744,-0.0146484,0.00899048,
746,0.00244141,0.00895386,
748,0.0152588,0.00906372,
750,-0.0012207,0.00906982,
752,0.00671387,0.00910645,
754,0.00732422,0.00912476,
756,-0.0158691,0.00927124,
758,0.00488281,0.00916138,
760,0.000610352,0.00914917,
762,-0.010376,0.00914917,
764,0.00915527,0.00898438,
766,0.00671387,0.00892944,
768,-0.010376,0.00894775,
770,0.00976563,0.00887451,
772,0.00549316,0.00870361,
774,0.0238037,0.0088501,
776,-0.00915527,0.00883789,
778,-0.00549316,0.0086731,
780,0.0164795,0.00874023,
782,0.00366211,0.00875244,
784,-0.010376,0.00876465,
786,0.00183105,0.00860596,
788,-0.0115967,0.00861206,
790,0.00488281,0.00858154,
792,0.00854492,0.0085144,
794,-0.00610352,0.00844727,
796,-0.00305176,0.00838013,
798,0.00976563,0.00841064,
800,0.00366211,0.00839233,
802,0.00610352,0.00841064,
804,0,0.00836182,
806,-0.00366211,0.00836792,
808,0.0152588,0.00845947,
810,-0.00793457,0.00852661,
812,-0.00610352,0.00856323,
814,0.0238037,0.00870361,
816,0.00793457,0.00877686,
818,-0.0134277,0.00886841,
820,0.0134277,0.00889282,
822,0.0012207,0.00878906,
824,0.00549316,0.00877075,
826,0.0195313,0.00882568,
828,-0.00671387,0.00880737,
830,0.00305176,0.00877686,
832,0.00671387,0.00880737,
834,-0.00366211,0.00881958,
836,0.00732422,0.00874634,
838,0.00549316,0.00879517,
840,0.00366211,0.00873413,
842,0.00488281,0.00870972,
844,-0.0170898,0.00883179,
846,-0.000610352,0.00879517,
848,0.00854492,0.00883179,
850,-0.012207,0.00894775,
852,0,0.00879517,
854,-0.00305176,0.0086731,
856,-0.00366211,0.00866089,
858,-0.00305176,0.00869141,
860,0.000610352,0.00861816,
862,-0.000610352,0.00857544,
864,0.00915527,0.00855103,
866,-0.000610352,0.0085022,
868,-0.00549316,0.00848389,
870,0.0128174,0.00856934,
872,-0.00183105,0.00855103,
874,0.00549316,0.0085022,
876,0.00610352,0.00853271,
878,-0.012207,0.00840454,
880,0.0219727,0.00845947,
882,0.00305176,0.00848389,
884,-0.00183105,0.00840454,
886,0.0109863,0.00841064,
888,-0.00305176,0.00837402,
890,0.00671387,0.00831909,
892,0.0201416,0.00826416,
894,-0.0183105,0.00826416,
896,0.0177002,0.00841675,
898,0.00427246,0.00831299,
900,-0.00671387,0.00835571,
902,-0.00549316,0.00836792,
904,0.000610352,0.00827637,
906,0.0109863,0.0083252,
908,0.00183105,0.00819702,
910,-0.000610352,0.00814819,
912,-0.00671387,0.00821533,
914,0.0164795,0.00823364,
916,0.00244141,0.00817871,
918,-0.00244141,0.00813599,
920,0.0158691,0.00810547,
922,-0.00610352,0.00809937,
924,0.020752,0.00827026,
926,0.00854492,0.00814819,
928,-0.0183105,0.00820313,
930,0.0115967,0.00818481,
932,0.0134277,0.00824585,
934,-0.00244141,0.00819702,
936,0.00549316,0.00813599,
938,-0.00305176,0.00802612,
940,-0.00549316,0.00787964,
942,0.0158691,0.00797119,
944,-0.00366211,0.00786133,
946,0.00915527,0.00792847,
948,0.00366211,0.0078125,
950,0.000610352,0.0078064,
952,0.0158691,0.00789795,
954,0.00732422,0.00789795,
956,0.00183105,0.00775757,
958,0.00427246,0.00775146,
960,-0.00305176,0.00777588,
962,-0.00915527,0.00776367,
964,0.0128174,0.00780029,
966,0.0012207,0.00774536,
968,-0.00427246,0.00768433,
970,0.00976563,0.00768433,
972,-0.00976563,0.00772705,
974,0.00793457,0.00756836,
976,0.0140381,0.00761719,
978,-0.0134277,0.00769653,
980,0.0109863,0.0076416,
982,0.00671387,0.00767212,
984,0.00488281,0.00761719,
986,0.00427246,0.0076416,
988,0.00183105,0.00754395,
990,0.00793457,0.00757446,
992,0.010376,0.00759277,
994,-0.0164795,0.00769653,
996,0.00427246,0.00770874,
998,0.0158691,0.00776978,
1000,-0.00610352,0.00779419,
1002,0.000610352,0.00773926,
1004,0.0152588,0.00789185,
1006,0.00854492,0.00794067,
1008,0.0152588,0.00794067,
1010,-0.000610352,0.00786743,
1012,-0.00366211,0.00784302,
1014,0.0244141,0.00784912,
1016,-0.000610352,0.00777588,
1018,-0.012207,0.00776367,
1020,0,0.00762939,
1022,-0.0231934,0.00784912,
1024,-0.00610352,0.00785522,
1026,0.0134277,0.00779419,
1028,-0.0189209,0.00791626,
1030,0.00732422,0.00795898,
1032,-0.00244141,0.00791626,
1034,-0.00305176,0.00791016,
1036,0.00915527,0.00792847,
1038,0.00549316,0.00792847,
1040,0.0195313,0.00808716,
1042,0.0115967,0.0081543,
1044,-0.0201416,0.00818481,
1046,0.010376,0.00828247,
1048,0.0195313,0.00839233,
1050,0.00305176,0.00830078,
1052,-0.000610352,0.00830688,
1054,-0.000610352,0.00828247,
1056,-0.00366211,0.00828247,
1058,0.00366211,0.00828857,
1060,0,0.00828247,
1062,0.00305176,0.00830688,
1064,0.0109863,0.0083252,
1066,-0.00671387,0.00838623,
1068,-0.000610352,0.0083374,
1070,0.010376,0.00831299,
1072,0.00549316,0.00834961,
1074,-0.00305176,0.0083252,
1076,0.00488281,0.00831299,
1078,-0.0152588,0.00834351,
1080,0.022583,0.00834961,
1082,-0.00305176,0.00834961,
1084,-0.012207,0.00845337,
1086,0.0183105,0.00852661,
1088,0.00366211,0.00853271,
1090,0,0.00846558,
1092,0.020752,0.00847168,
1094,-0.0109863,0.00839844,
1096,0.00976563,0.00831909,
1098,0.0128174,0.00840454,
1100,-0.00671387,0.00840454,
1102,-0.012207,0.00847168,
1104,-0.000610352,0.00847168,
1106,-0.00732422,0.00843506,
1108,-0.000610352,0.00842285,
1110,-0.00549316,0.00847168,
1112,-0.0128174,0.00853271,
1114,0.00976563,0.00846558,
1116,0.0115967,0.00855713,
1118,-0.00671387,0.00859985,
1120,0.00183105,0.00845947,
1122,-0.00671387,0.00846558,
1124,0.0158691,0.00841675,
1126,0.00793457,0.00841064,
1128,-0.0244141,0.00847168,
1130,0.0146484,0.0085022,
1132,0.000610352,0.00837402,
1134,-0.00854492,0.00843506,
1136,0.0128174,0.0085083,
1138,0,0.00847778,
1140,0.000610352,0.00842896,
1142,0.0164795,0.00843506,
1144,-0.00671387,0.00846558,
1146,0.0109863,0.00848389,
1148,0.00793457,0.00852661,
1150,0.00549316,0.00857544,
1152,0.00976563,0.0085144,
1154,0.0012207,0.00845337,
1156,0.0012207,0.00844727,
1158,0.0134277,0.00853882,
1160,0.00244141,0.00853271,
1162,-0.00610352,0.0085022,
1164,0.0146484,0.00852051,
1166,0.00427246,0.00855103,
1168,-0.00305176,0.00853882,
1170,0.0128174,0.00856934,
1172,-0.0012207,0.00848389,
1174,0.0115967,0.00852051,
1176,0.0012207,0.00839233,
1178,-0.0183105,0.00844116,
1180,0.0238037,0.00856934,
1182,0.012207,0.00862427,
1184,-0.00915527,0.00866699,
1186,-0.00488281,0.0086731,
1188,-0.010376,0.00875854,
1190,0.0231934,0.00891113,
1192,0.0201416,0.00900879,
1194,-0.0158691,0.00900269,
1196,-0.00854492,0.00904541,
1198,0.00976563,0.00898438,
1200,0.00305176,0.00895386,
1202,0.00671387,0.00901489,
1204,-0.00671387,0.00892944,
1206,-0.000610352,0.0088501,
1208,0.00976563,0.00879517,
1210,-0.00244141,0.00881348,
1212,0.00244141,0.00880127,
1214,0.010376,0.00866089,
1216,0.00183105,0.0086731,
1218,-0.00427246,0.00859375,
1220,0.00732422,0.00866699,
1222,-0.010376,0.00853882,
1224,0.00793457,0.00855713,
1226,0.00915527,0.0085144,
1228,-0.00976563,0.00842285,
1230,0.0189209,0.00853882,
1232,-0.00610352,0.00857544,
1234,-0.00549316,0.00859985,
1236,0.0146484,0.00865479,
1238,-0.000610352,0.00860596,
1240,0.012207,0.00853271,
1242,0.0152588,0.00856934,
1244,-0.0152588,0.00852051,
1246,0.0140381,0.00855713,
1248,0.010376,0.00846558,
1250,-0.00488281,0.00848389,
1252,0.0115967,0.00859375,
1254,0.010376,0.00869141,
1256,0.0115967,0.00877075,
1258,0.0012207,0.00874634,
1260,-0.00732422,0.00881958,
1262,-0.00427246,0.00883179,
1264,0.012207,0.00884399,
1266,0.00427246,0.00881958,
1268,-0.0177002,0.00899048,
1270,-0.00244141,0.00891113,
1272,-0.0140381,0.00899658,
1274,-0.00244141,0.00899048,
1276,0.00915527,0.0090332,
1278,-0.012207,0.00900269,
1280,0.0158691,0.00893555,
1282,0.0109863,0.00901489,
1284,-0.010376,0.00899658,
1286,0.0201416,0.00901489,
1288,0.00244141,0.00900269,
1290,0.0177002,0.00917969,
1292,0.0115967,0.00908813,
1294,-0.0134277,0.00911255,
1296,0.0158691,0.00917358,
1298,0.00732422,0.00911865,
1300,0,0.00905151,
1302,0.00427246,0.00897217,
1304,-0.00244141,0.00899048,
1306,-0.00854492,0.00900269,
1308,0.00793457,0.00907593,
1310,-0.00183105,0.00903931,
1312,-0.00793457,0.00899048,
1314,0.0170898,0.00906372,
1316,0.00854492,0.0090332,
1318,0.000610352,0.00897217,
1320,0.00366211,0.00899048,
1322,0,0.00892334,
1324,0.0164795,0.00892944,
1326,0.0115967,0.00896606,
1328,-0.00549316,0.00877686,
1330,0.0262451,0.00889282,
1332,0.00427246,0.00892944,
1334,-0.00244141,0.00886841,
1336,0.00183105,0.00875854,
1338,0.00610352,0.00881958,
1340,0.0140381,0.00895386,
1342,0.0134277,0.00892334,
1344,-0.0244141,0.00910034,
1346,0.00366211,0.0090271,
1348,0.0012207,0.00895996,
1350,-0.00305176,0.00893555,
1352,0.00793457,0.00891724,
1354,0.00183105,0.00892334,
1356,0.00366211,0.00894775,
1358,0.00488281,0.0088623,
1360,-0.0012207,0.0088501,
1362,-0.00488281,0.00883789,
1364,0.0280762,0.00897217,
1366,-0.00793457,0.00900879,
1368,-0.00305176,0.00900879,
1370,0.0189209,0.00906982,
1372,-0.00732422,0.00913086,
1374,0.00610352,0.00907593,
1376,0.0109863,0.00917358,
1378,-0.0128174,0.00911865,
1380,0.0335693,0.00921631,
1382,-0.00305176,0.00912476,
1384,-0.00671387,0.00910034,
1386,0.020752,0.00925903,
1388,-0.00183105,0.00917358,
1390,0.0164795,0.00910645,
1392,0.0115967,0.009021,
1394,-0.00732422,0.00893555,
1396,0.00793457,0.00892944,
1398,0.0115967,0.00894775,
1400,0,0.00891724,
1402,0.00915527,0.00894165,
1404,-0.00549316,0.00892944,
1406,0.00793457,0.00900269,
1408,0.00732422,0.00897827,
1410,-0.00427246,0.00899658,
1412,-0.010376,0.00907593,
1414,0.0140381,0.00911255,
1416,0.00305176,0.00912476,
1418,-0.00793457,0.00916138,
1420,0.00793457,0.00916748,
1422,-0.00244141,0.00908813,
1424,0.0146484,0.00915527,
1426,0.0164795,0.00922852,
1428,-0.00915527,0.00922241,
1430,0.0262451,0.00929565,
1432,0.00244141,0.00925903,
1434,-0.00915527,0.00929565,
1436,0.0183105,0.00933228,
1438,-0.012207,0.00944824,
1440,0.00976563,0.00942383,
1442,0.0238037,0.00950928,
1444,-0.0183105,0.00953979,
1446,-0.00793457,0.00947876,
1448,0.022583,0.00960083,
1450,0.00488281,0.00960083,
1452,0.012207,0.00960693,
1454,0.00854492,0.00958862,
1456,-0.0140381,0.00961304,
1458,0.0140381,0.00974121,
1460,-0.00793457,0.00974731,
1462,-0.012207,0.00982666,
1464,0.00915527,0.00979614,
1466,0.00610352,0.00981445,
1468,-0.0177002,0.00981445,
1470,0.00732422,0.00986328,
1472,-0.00854492,0.00980835,
1474,0.0164795,0.00994873,
1476,0.00732422,0.00993042,
1478,-0.0164795,0.00997314,
1480,0.0140381,0.00995483,
1482,0.0134277,0.00997925,
1484,-0.00488281,0.00992432,
1486,0.0012207,0.00973511,
1488,0.00427246,0.00975342,
1490,0.012207,0.00969849,
1492,0.010376,0.00968628,
1494,-0.00732422,0.00962524,
1496,0.00976563,0.00956421,
1498,0.00732422,0.00956421,
1500,0.00488281,0.00961304,
1502,0.00427246,0.00961304,
1504,0.00488281,0.00963745,
1506,-0.00305176,0.00958252,
1508,0.0128174,0.00963135,
1510,0.000610352,0.00961914,
1512,-0.010376,0.00964355,
1514,0.0109863,0.00958252,
1516,-0.000610352,0.00950317,
1518,-0.00976563,0.00959473,
1520,0.00610352,0.00961914,
1522,-0.00305176,0.00964966,
1524,0.0146484,0.00963135,
1526,0.00488281,0.00956421,
1528,-0.0164795,0.00967407,
1530,0.010376,0.00951538,
1532,0.0140381,0.00961304,
1534,-0.0109863,0.00969849,
1536,0.012207,0.00980225,
1538,-0.00976563,0.00983887,
1540,-0.00183105,0.0097168,
1542,0.0256348,0.00983887,
1544,-0.0170898,0.00976563,
1546,0.0128174,0.00985718,
1548,0.00915527,0.00993652,
1550,-0.0115967,0.010022,
1552,0.00305176,0.00997314,
1554,0.00549316,0.0100098,
1556,-0.00244141,0.00999756,
1558,0.00366211,0.00998535,
1560,-0.00976563,0.0100708,
1562,0.000610352,0.0100281,
1564,0.0128174,0.00987549,
1566,0.00305176,0.00982666,
1568,-0.00305176,0.00982666,
1570,0.010376,0.00974121,
1572,-0.00488281,0.0097168,
1574,0.0146484,0.00980225,
1576,0.0115967,0.00980835,
1578,-0.0195313,0.00987549,
1580,0.00366211,0.00957642,
1582,0.00244141,0.00957031,
1584,-0.0152588,0.00965576,
1586,-0.00183105,0.00946655,
1588,-0.00549316,0.00950317,
1590,-0.00671387,0.00940552,
1592,0.0195313,0.00948486,
1594,-0.0146484,0.00955811,
1596,0.0134277,0.00961304,
1598,0.00793457,0.00957642,
1600,0.000610352,0.00958252,
1602,0.0115967,0.00960693,
1604,0.00549316,0.00960693,
1606,-0.00183105,0.0095459,
1608,0.0158691,0.00963135,
1610,0,0.00958862,
1612,-0.0012207,0.00949707,
1614,0.0128174,0.00948486,
1616,0.00915527,0.0095459,
1618,0.00183105,0.00948486,
1620,0.00549316,0.00946045,
1622,-0.00549316,0.00949097,
1624,0.00854492,0.00942993,
1626,0.00488281,0.00931396,
1628,-0.00732422,0.00929565,
1630,0.0177002,0.00921021,
1632,-0.00305176,0.00921631,
1634,0.00305176,0.00915527,
1636,0.012207,0.00909424,
1638,-0.00732422,0.00904541,
1640,0.00732422,0.009021,
1642,0.0177002,0.00895996,
1644,-0.010376,0.00888062,
1646,0.000610352,0.00880737,
1648,0.00976563,0.0086792,
1650,-0.00305176,0.00866089,
1652,-0.00244141,0.00856323,
1654,-0.00549316,0.00853271,
1656,0.00305176,0.00842285,
1658,0.0115967,0.00839844,
1660,-0.00671387,0.00838623,
1662,0.00366211,0.00830078,
1664,0.0158691,0.00836792,
1666,-0.00427246,0.00834961,
1668,0,0.00817261,
1670,0.0183105,0.00828247,
1672,-0.00305176,0.00822754,
1674,0.00549316,0.00811768,
1676,0.00671387,0.00811157,
1678,-0.0140381,0.00808716,
1680,0.00671387,0.00801392,
1682,0.00610352,0.00794067,
1684,-0.012207,0.00801392,
1686,0.00488281,0.00805054,
1688,-0.00488281,0.00805664,
1690,0.00915527,0.00802612,
1692,0.0109863,0.00803223,
1694,-0.0183105,0.00814209,
1696,0.0109863,0.0081543,
1698,0.00915527,0.00817261,
1700,-0.00244141,0.00814819,
1702,0.00854492,0.00819092,
1704,-0.010376,0.00824585,
1706,0.00244141,0.00823975,
1708,0.00732422,0.00818481,
1710,0,0.00817871,
1712,-0.00671387,0.00814209,
1714,0.0170898,0.00820313,
1716,0.00732422,0.00827026,
1718,-0.000610352,0.00817871,
1720,0.00793457,0.00819702,
1722,0.00366211,0.00820313,
1724,0.0140381,0.00819702,
1726,0.0140381,0.00828857,
1728,-0.010376,0.00822754,
1730,0.022583,0.00834961,
1732,-0.00183105,0.00822754,
1734,-0.00549316,0.00817261,
1736,0.0170898,0.00822144,
1738,-0.00183105,0.00814209,
1740,0.00854492,0.00820923,
1742,0.0231934,0.00818481,
1744,-0.0189209,0.00820313,
1746,0.0299072,0.00837402,
1748,0.00610352,0.00834351,
1750,-0.00915527,0.00831909,
1752,0.00549316,0.00834351,
1754,0.00549316,0.00834351,
1756,0.000610352,0.0083252,
1758,-0.00366211,0.0083252,
1760,-0.0152588,0.00838013,
1762,-0.00305176,0.00840454,
1764,0.0164795,0.00844116,
1766,-0.0012207,0.00842285,
1768,-0.000610352,0.00839844,
1770,0.00732422,0.00836792,
1772,-0.00305176,0.00834961,
1774,0.0238037,0.00844116,
1776,0.00244141,0.00834961,
1778,-0.0109863,0.00826416,
1780,0.0244141,0.00847168,
1782,0.00854492,0.00853271,
1784,-0.00305176,0.00841064,
1786,0.0128174,0.00852051,
1788,-0.00305176,0.00849609,
1790,0.0177002,0.00860596,
1792,0.0177002,0.00858765,
1794,-0.0189209,0.00863037,
1796,0.0115967,0.00861206,
1798,0.00854492,0.00861816,
1800,-0.00244141,0.00863647,
1802,0.00854492,0.00860596,
1804,0.00183105,0.00856934,
1806,-0.00244141,0.00857544,
1808,0.00549316,0.00847168,
1810,-0.00427246,0.0085144,
1812,0.0012207,0.0085144,
1814,0.0134277,0.00852051,
1816,-0.000610352,0.00843506,
1818,0.00305176,0.00844727,
1820,0.00915527,0.00848389,
1822,0,0.00842896,
1824,0.0140381,0.00848389,
1826,0.00183105,0.00845337,
1828,-0.0164795,0.00854492,
1830,0.0262451,0.00863037,
1832,-0.00183105,0.00861816,
1834,-0.0128174,0.00871582,
1836,0.00976563,0.00869141,
1838,-0.00305176,0.00864868,
1840,0.0115967,0.00869141,
1842,0.0134277,0.00864868,
1844,-0.00671387,0.00861206,
1846,0.00854492,0.00869141,
1848,0.00976563,0.00869141,
1850,-0.00671387,0.00872803,
1852,0.00244141,0.00872803,
1854,0.000610352,0.0086792,
1856,-0.0012207,0.00866089,
1858,-0.00488281,0.00859375,
1860,-0.0170898,0.00869751,
1862,0.00488281,0.00870972,
1864,0.012207,0.0086731,
1866,0.00488281,0.0086792,
1868,0.000610352,0.0086853,
1870,0.00488281,0.00855103,
1872,0.000610352,0.00852661,
1874,0.00793457,0.00855103,
1876,0.00976563,0.00858154,
1878,-0.0152588,0.00859375,
1880,0.0146484,0.0086731,
1882,0.0012207,0.00862427,
1884,-0.00915527,0.00859375,
1886,0.0128174,0.0086731,
1888,-0.00610352,0.0086853,
1890,0.00732422,0.00866699,
1892,0.0115967,0.0086731,
1894,-0.0231934,0.00872192,
1896,0.00976563,0.00870972,
1898,0.000610352,0.00862427,
1900,-0.0158691,0.00875854,
1902,-0.000610352,0.0086792,
1904,0.00183105,0.00859375,
1906,-0.00183105,0.00858765,
1908,0.00305176,0.00854492,
1910,0,0.00854492,
1912,0.00488281,0.00852661,
1914,0.00854492,0.00844116,
1916,-0.00488281,0.00841675,
1918,-0.00183105,0.00842896,
1920,0.00915527,0.00844116,
1922,-0.00671387,0.00847168,
1924,-0.00183105,0.00834961,
1926,0.00427246,0.00825195,
1928,-0.0128174,0.00827637,
1930,0.0128174,0.00817871,
1932,0.00610352,0.00822144,
1934,-0.0109863,0.00827637,
1936,0.0140381,0.00824585,
1938,-0.00732422,0.00830078,
1940,0.0201416,0.00841675,
1942,0.010376,0.00828857,
1944,-0.0152588,0.00825195,
1946,0.000610352,0.00795898,
1948,0.0134277,0.00803223,
1950,0.0115967,0.00805664,
1952,0.00366211,0.00803833,
1954,0.00244141,0.00800781,
1956,-0.0158691,0.0081604,
1958,0.0158691,0.00828247,
1960,-0.0115967,0.00824585,
1962,0,0.00821533,
1964,0.012207,0.00817261,
1966,-0.0134277,0.00829468,
1968,-0.00854492,0.00837402,
1970,0.00793457,0.00838013,
1972,-0.00610352,0.00841064,
1974,0.0128174,0.00830078,
1976,0.00793457,0.00835571,
1978,-0.012207,0.00836792,
1980,0.0201416,0.0083252,
1982,-0.0012207,0.00825195,
1984,-0.010376,0.0083252,
1986,0.0140381,0.0083374,
1988,-0.00305176,0.0083374,
1990,-0.00549316,0.00821533,
1992,0.0128174,0.0081665,
1994,-0.0158691,0.00813599,
1996,0.00976563,0.00811768,
1998,0.00549316,0.00808716,
2000,-0.010376,0.0081665,
2002,0.00854492,0.0081665,
2004,0.00915527,0.00823975,
2006,-0.00671387,0.00828247,
2008,0.0164795,0.00839233,
2010,-0.00610352,0.00841064,
2012,-0.00793457,0.00847778,
2014,0.0244141,0.00858765,
2016,-0.00854492,0.00866699,
2018,0.00671387,0.00870361,
2020,0.0177002,0.00878906,
2022,-0.012207,0.00891113,
2024,0.0146484,0.00891724,
2026,0.00793457,0.00897827,
2028,-0.0134277,0.00894775,
2030,0.0219727,0.00890503,
2032,-0.00244141,0.00891113,
2034,-0.0195313,0.00897827,
2036,0.0128174,0.00900879,
2038,-0.00244141,0.00900269,
2040,0.0158691,0.00904541,
2042,0.00732422,0.00898438,
2044,-0.0158691,0.00907593,
2046,0.00915527,0.00908203,
2048,0.012207,0.00910645,
2050,0.00671387,0.00910645,
2052,0.012207,0.0092041,
2054,0.000610352,0.0092041,
2056,-0.00793457,0.00927124,
2058,0.00610352,0.00928345,
2060,0.00183105,0.00913086,
2062,-0.0115967,0.009198,
2064,0.0140381,0.00921631,
2066,-0.00488281,0.00921631,
2068,-0.00549316,0.00926514,
2070,0.00732422,0.00928955,
2072,-0.00427246,0.00932617,
2074,0.0158691,0.00940552,
2076,0.0177002,0.00948486,
2078,-0.00427246,0.009375,
2080,0.0115967,0.00934448,
2082,0.0146484,0.00947876,
2084,-0.0115967,0.00950317,
2086,0.010376,0.00947876,
2088,0.00427246,0.00946045,
2090,0.00244141,0.00941162,
2092,0.012207,0.00941772,
2094,0.000610352,0.00919189,
2096,0.0164795,0.00925903,
2098,0.00915527,0.00934448,
2100,-0.00244141,0.00921021,
2102,0.00915527,0.00929565,
2104,-0.0012207,0.00928955,
2106,-0.00305176,0.00930176,
2108,0.00793457,0.00935059,
2110,-0.0115967,0.00946655,
2112,-0.00305176,0.00944824,
2114,0.0146484,0.00950928,
2116,0.00366211,0.00949707,
2118,-0.000610352,0.00948486,
2120,0.0128174,0.00952148,
2122,-0.000610352,0.00946045,
2124,0.00549316,0.00949707,
2126,0.00793457,0.00953369,
2128,-0.0177002,0.00958252,
2130,0.0213623,0.00966797,
2132,-0.0012207,0.00961914,
2134,-0.00732422,0.00958252,
2136,0.0183105,0.00962524,
2138,-0.0146484,0.00969849,
2140,0.0115967,0.00961304,
2142,0.0183105,0.00969238,
2144,-0.0201416,0.00974121,
2146,0.00488281,0.00978394,
2148,0.0268555,0.00991821,
2150,-0.000610352,0.00980835,
2152,0.00305176,0.00980225,
2154,-0.00183105,0.00979614,
2156,0.0146484,0.00978394,
2158,-0.00183105,0.00964355,
2160,0,0.00952759,
2162,-0.00793457,0.00960693,
2164,0.00244141,0.00950928,
2166,0.00183105,0.00939331,
2168,-0.00183105,0.00932617,
2170,-0.000610352,0.00925293,
2172,-0.012207,0.00931396,
2174,0.0128174,0.00931396,
2176,0.0140381,0.009375,
2178,-0.0158691,0.00941162,
2180,0.0152588,0.00936279,
2182,-0.00244141,0.009375,
2184,-0.00854492,0.00935669,
2186,0.012207,0.00933838,
2188,-0.00488281,0.00935669,
2190,0.00183105,0.00932007,
2192,0.0158691,0.00935059,
2194,-0.0177002,0.0093689,
2196,0.010376,0.009375,
2198,0.00915527,0.00941162,
2200,0.000610352,0.00931396,
2202,0.00854492,0.00931396,
2204,0.0189209,0.00941162,
2206,-0.0012207,0.00935669,
2208,0.00915527,0.00928345,
2210,-0.00305176,0.00925293,
2212,0.0109863,0.00928345,
2214,0.0146484,0.00918579,
2216,0.00793457,0.00917969,
2218,-0.00549316,0.00916748,
2220,0.0164795,0.00915527,
2222,-0.00671387,0.00910034,
2224,0.000610352,0.00895996,
2226,0.020752,0.00908813,
2228,-0.00793457,0.0090332,
2230,0.0146484,0.00895996,
2232,-0.00366211,0.00897217,
2234,-0.0256348,0.0090332,
2236,0.0256348,0.00916138,
2238,-0.00732422,0.00921021,
2240,-0.00610352,0.00911255,
2242,-0.00183105,0.00905762,
2244,-0.0177002,0.00907593,
2246,-0.00427246,0.0090271,
2248,0.00915527,0.00899658,
2250,0.000610352,0.00893555,
2252,-0.000610352,0.00881958,
2254,-0.0109863,0.00892334,
2256,0.00549316,0.00889893,
2258,0.0140381,0.00897827,
2260,-0.00549316,0.00901489,
2262,0.000610352,0.00890503,
2264,0.00915527,0.0088562,
2266,-0.00305176,0.00883789,
2268,0.00244141,0.00880737,
2270,0.0128174,0.0088623,
2272,-0.00610352,0.00888062,
2274,0.0115967,0.00883789,
2276,0.00488281,0.00870972,
2278,-0.00366211,0.00870361,
2280,0.0177002,0.00876465,
2282,0.00549316,0.0086731,
2284,0.00366211,0.00859375,
2286,0.0262451,0.00875244,
2288,-0.000610352,0.00871582,
2290,0.012207,0.00881348,
2292,0.0250244,0.00894165,
2294,-0.0286865,0.00922241,
2296,0.0183105,0.00924072,
2298,0.00976563,0.00924683,
2300,-0.00549316,0.00927734,
2302,0.00305176,0.00921631,
2304,-0.00488281,0.00925293,
2306,0.00671387,0.00928955,
2308,-0.00244141,0.00923462,
2310,-0.00427246,0.00916138,
2312,-0.00793457,0.00921021,
2314,0.0158691,0.00922241,
2316,0.00488281,0.00923462,
2318,-0.0128174,0.00935669,
2320,0.0109863,0.00933838,
2322,-0.0183105,0.00951538,
2324,0.0134277,0.00959473,
2326,0.0189209,0.00970459,
2328,-0.0183105,0.00971069,
2330,0.0213623,0.00971069,
2332,-0.00854492,0.00978394,
2334,0.00488281,0.00975952,
2336,0.0195313,0.00977173,
2338,-0.010376,0.009729,
2340,0.00305176,0.00964355,
2342,0.022583,0.00968628,
2344,-0.0268555,0.00975342,
2346,0.0012207,0.0097168,
2348,0.0231934,0.00968018,
2350,-0.00976563,0.00977173,
2352,0.00183105,0.00975952,
2354,-0.00427246,0.00978394,
2356,-0.00732422,0.00971069,
2358,0.0250244,0.00994263,
2360,0.00488281,0.00999146,
2362,-0.0189209,0.0101013,
2364,0.022583,0.0103027,
2366,-0.00976563,0.0103821,
2368,-0.00183105,0.0103821,
2370,0.0012207,0.0103882,
2372,-0.00732422,0.0103394,
2374,0.000610352,0.0102173,
2376,-0.00366211,0.0101135,
2378,-0.0256348,0.0102112,
2380,0.0299072,0.0103577,
2382,-0.00793457,0.0104126,
2384,-0.00732422,0.0104004,
2386,0.012207,0.0104004,
2388,-0.012207,0.0104736,
2390,0.0109863,0.0105652,
2392,0.0195313,0.0106018,
2394,-0.0250244,0.010675,
2396,0.0115967,0.0106873,
2398,0.0134277,0.01073,
2400,0.00610352,0.0107849,
2402,0.0128174,0.0108276,
2404,0.00244141,0.0106628,
2406,-0.0012207,0.0106628,
2408,0.0274658,0.0108459,
2410,-0.00671387,0.0108826,
2412,-0.0177002,0.0109497,
2414,0.0158691,0.0109619,
2416,-0.00488281,0.0109314,
2418,-0.00488281,0.0109253,
2420,0.00488281,0.0108093,
2422,-0.020752,0.0109497,
2424,0.00366211,0.0109802,
2426,0.0109863,0.0108826,
2428,-0.0115967,0.0109192,
2430,0.0250244,0.0110229,
2432,-0.00549316,0.0110413,
2434,-0.0158691,0.0109436,
2436,0.0134277,0.0108215,
2438,-0.00427246,0.010791,
2440,0.0128174,0.0108582,
2442,0.0140381,0.0109802,
2444,-0.012207,0.0109253,
2446,0.0177002,0.0110596,
2448,0.00366211,0.0110046,
2450,-0.000610352,0.0110046,
2452,0.00671387,0.0110657,
2454,-0.00366211,0.0109924,
2456,0.00976563,0.0110352,
2458,0.0183105,0.0110779,
2460,-0.00427246,0.0110657,
2462,0.010376,0.0111633,
2464,0.0292969,0.0113647,
2466,-0.012207,0.0114563,
2468,0.00427246,0.0114746,
2470,0.00915527,0.011438,
2472,-0.00488281,0.0114258,
2474,0.00244141,0.0113342,
2476,0.0012207,0.0112976,
2478,-0.0140381,0.0114014,
2480,0.022583,0.0114502,
2482,-0.00244141,0.0114197,
2484,-0.010376,0.0114868,
2486,0.0128174,0.0113525,
2488,0.00366211,0.0113831,
2490,0.00976563,0.0113586,
2492,0.00366211,0.011145,
2494,-0.0158691,0.0110168,
2496,0.00976563,0.0109314,
2498,-0.000610352,0.0108398,
2500,-0.0012207,0.0107971,
2502,0.00366211,0.0108032,
2504,-0.00305176,0.0107849,
2506,-0.00854492,0.0108032,
2508,0.0219727,0.0109985,
2510,-0.00488281,0.0110046,
2512,-0.00549316,0.0109802,
2514,0.012207,0.0109436,
2516,0.0115967,0.0110107,
2518,0.00549316,0.0109375,
2520,0.00732422,0.0109009,
2522,0.00427246,0.0107605,
2524,0.0146484,0.0107727,
2526,0.0115967,0.0106995,
2528,-0.00488281,0.0105652,
2530,0.0231934,0.0105835,
2532,-0.00427246,0.0105408,
2534,-0.00305176,0.0105225,
2536,0.0109863,0.010437,
2538,-0.00671387,0.0104004,
2540,0.0109863,0.0104797,
2542,0.0140381,0.0103943,
2544,-0.0134277,0.01026,
2546,0.0189209,0.010437,
2548,0.00854492,0.0102905,
2550,0.00366211,0.0102295,
2552,0.00244141,0.0102356,
2554,0.00488281,0.0102417,
2556,0.00549316,0.0102234,
2558,0.0115967,0.0100891,
2560,-0.0109863,0.0101501,
2562,0.0012207,0.00997314,
2564,0.00976563,0.00984497,
2566,0.0189209,0.00993652,
2568,-0.0286865,0.0102051,
2570,0.000610352,0.010199,
2572,0.00488281,0.0101746,
2574,0.00305176,0.010199,
2576,-0.00244141,0.0101868,
2578,-0.0189209,0.0101196,
2580,0.0140381,0.00996094,
2582,-0.00488281,0.00993042,
2584,-0.00854492,0.00994263,
2586,0.0183105,0.0100037,
2588,-0.00854492,0.00996704,
2590,0.0146484,0.0100037,
2592,0.0109863,0.00991821,
2594,-0.0183105,0.00985107,
2596,0.0152588,0.0098877,
2598,0.00793457,0.00983276,
2600,-0.00305176,0.00980225,
2602,0.0109863,0.00978394,
2604,-0.0012207,0.00977173,
2606,0,0.00975952,
2608,0.0170898,0.00965576,
2610,0.000610352,0.00959473,
2612,0.0012207,0.00942993,
2614,0.020752,0.00947876,
2616,-0.00793457,0.00950928,
2618,0.00366211,0.00949707,
2620,0.0280762,0.009729,
2622,-0.012207,0.00964355,
2624,0.00366211,0.00964355,
2626,0.00305176,0.00956421,
2628,-0.0109863,0.00955811,
2630,0.0189209,0.00949707,
2632,-0.0012207,0.00945435,
2634,-0.00976563,0.00939331,
2636,0.00305176,0.00928955,
2638,-0.0128174,0.009375,
2640,0.0183105,0.00942993,
2642,0.0134277,0.00942383,
2644,-0.0146484,0.00944824,
2646,0.00793457,0.00935059,
2648,0.00793457,0.00939331,
2650,-0.00183105,0.00940552,
2652,0.00488281,0.00938721,
2654,0.000610352,0.00935669,
2656,-0.00244141,0.00928345,
2658,0.00854492,0.00918579,
2660,-0.0256348,0.00939941,
2662,0.00732422,0.0093689,
2664,0.00610352,0.00913696,
2666,0.000610352,0.009021,
2668,0.00671387,0.00904541,
2670,0.020752,0.00916138,
2672,-0.0177002,0.00928955,
2674,0.00549316,0.00932007,
2676,0.0109863,0.00941772,
2678,-0.0115967,0.00939331,
2680,0.00793457,0.00924683,
2682,-0.00488281,0.00927124,
2684,-0.012207,0.00928955,
2686,-0.000610352,0.00916748,
2688,-0.00305176,0.00916138,
2690,0.0140381,0.0092041,
2692,0.0158691,0.00932617,
2694,-0.00854492,0.00925293,
2696,0.0134277,0.00928955,
2698,0,0.00928345,
2700,0,0.00927124,
2702,0.00366211,0.00927124,
2704,-0.00183105,0.00925903,
2706,-0.010376,0.00927734,
2708,0.00183105,0.00907593,
2710,-0.00976563,0.00912476,
2712,-0.00488281,0.00911865,
2714,0.00244141,0.009021,
2716,-0.00549316,0.00895996,
2718,0,0.00890503,
2720,-0.00488281,0.00888062,
2722,0.00549316,0.00889282,
2724,-0.00610352,0.00880737,
2726,0.00732422,0.00876465,
2728,-0.0115967,0.00883179,
2730,0.0146484,0.00874634,
2732,0.00671387,0.00877075,
2734,-0.00610352,0.00880127,
2736,0.0140381,0.00883179,
2738,-0.00732422,0.00883789,
2740,0.0109863,0.00883789,
2742,0.00488281,0.00874634,
2744,-0.0195313,0.00880737,
2746,0.022583,0.00884399,
2748,-0.0012207,0.00877075,
2750,-0.010376,0.00883789,
2752,-0.00183105,0.00883179,
2754,0.00488281,0.00883179,
2756,0.00610352,0.00883789,
2758,0.0140381,0.0088623,
2760,-0.00854492,0.00883789,
2762,-0.000610352,0.00883179,
2764,0.0146484,0.00888062,
2766,0.0109863,0.00880127,
2768,0.000610352,0.00852051,
2770,0.00244141,0.00853882,
2772,-0.00671387,0.00855713,
2774,0.0109863,0.00863647,
2776,0.00427246,0.00865479,
2778,-0.020752,0.0086731,
2780,0.00976563,0.00863037,
2782,-0.00427246,0.00862427,
2784,-0.00793457,0.00861816,
2786,0.00427246,0.00847778,
2788,-0.0146484,0.00853882,
2790,0.00305176,0.00842285,
2792,0.020752,0.00852051,
2794,-0.0170898,0.0085083,
2796,0.010376,0.00845947,
2798,0,0.00838013,
2800,-0.00549316,0.00840454,
2802,0.00976563,0.00839233,
2804,-0.00915527,0.00847168,
2806,0.00732422,0.00854492,
2808,0.010376,0.00847778,
2810,-0.0213623,0.0086853,
2812,0.00549316,0.00872803,
2814,0.0177002,0.00869751,
2816,0,0.00861816,
2818,0.00549316,0.00863647,
2820,0.00488281,0.00840454,
2822,-0.00366211,0.00831909,
2824,0.0213623,0.00849609,
2826,0.00488281,0.0085144,
2828,-0.000610352,0.00841064,
2830,0.0177002,0.00839844,
2832,-0.00610352,0.00844727,
2834,0.00305176,0.00838013,
2836,0.0134277,0.00848389,
2838,-0.012207,0.00847778,
2840,0.0140381,0.00843506,
2842,0.0213623,0.0085144,
2844,-0.0213623,0.00858154,
2846,-0.00549316,0.00855713,
2848,0.00854492,0.00856323,
2850,-0.00488281,0.00859375,
2852,0.00427246,0.00858765,
2854,-0.00305176,0.00861206,
2856,-0.00671387,0.00865479,
2858,0.0158691,0.00872803,
2860,-0.0128174,0.00859985,
2862,0.00183105,0.00854492,
2864,0.0158691,0.00864258,
2866,-0.00549316,0.00869141,
2868,0.00732422,0.00869751,
2870,0.00610352,0.00855103,
2872,0.00427246,0.00841675,
2874,0.00183105,0.00838013,
2876,-0.00671387,0.0083374,
2878,0.000610352,0.00822754,
2880,0.0170898,0.00831909,
2882,-0.000610352,0.00827637,
2884,-0.00915527,0.00824585,
2886,0.0115967,0.00835571,
2888,-0.00244141,0.00834961,
2890,0.00976563,0.00830688,
2892,0.0134277,0.00828247,
2894,-0.00305176,0.00822754,
2896,-0.00366211,0.00812988,
2898,0.00671387,0.00819702,
2900,-0.00305176,0.00822754,
2902,0.0109863,0.00830078,
2904,-0.00305176,0.00831299,
2906,0.0012207,0.00822144,
2908,0.00549316,0.00825806,
2910,-0.00793457,0.00823975,
2912,0.00854492,0.00827637,
2914,0.0164795,0.00841675,
2916,-0.00183105,0.00838013,
2918,0.012207,0.0085022,
2920,0.0109863,0.00856323,
2922,0.00305176,0.00853882,
2924,0.00793457,0.00855713,
2926,0.00366211,0.00852051,
2928,-0.00732422,0.00847778,
2930,0.00915527,0.00842285,
2932,0,0.00835571,
2934,0.00305176,0.0083252,
2936,0.012207,0.00830688,
2938,-0.00915527,0.0083252,
2940,0.00427246,0.00825806,
2942,0.00366211,0.00824585,
2944,-0.00366211,0.00808716,
2946,0.0140381,0.00800171,
2948,-0.00488281,0.00803833,
2950,-0.00793457,0.00801392,
2952,-0.00305176,0.00802612,
2954,-0.00915527,0.00806885,
2956,0.000610352,0.00801392,
2958,0.00305176,0.00790405,
2960,-0.00671387,0.00788574,
2962,0.00732422,0.00795288,
2964,0.00366211,0.00784302,
2966,0,0.00773315,
2968,-0.000610352,0.00773315,
2970,0.0140381,0.00784912,
2972,-0.00610352,0.00784302,
2974,0.00610352,0.00779419,
2976,-0.00427246,0.00779419,
2978,0.00305176,0.00761719,
2980,0.00976563,0.00761719,
2982,0.000610352,0.00758057,
2984,0.0134277,0.0076355,
2986,0.00549316,0.00764771,
2988,-0.0140381,0.0076416,
2990,0.0195313,0.0078064,
2992,0.0164795,0.00776367,
2994,-0.0140381,0.00773315,
2996,0.00427246,0.00767212,
2998,0.00305176,0.00770264,
3000,-0.00183105,0.00766602,
3002,0,0.00756836,
3004,-0.00610352,0.00753784,
3006,0.00488281,0.00751343,
3008,0.012207,0.00753174,
3010,-0.00976563,0.00741577,
3012,0,0.00736084,
3014,0.00549316,0.00723877,
3016,-0.000610352,0.00724487,
3018,0.00183105,0.00720825,
3020,0.00610352,0.00722046,
3022,-0.00305176,0.00721436,
3024,0.00976563,0.00709839,
3026,-0.00610352,0.0071106,
3028,0.00244141,0.00712891,
3030,0.0109863,0.00706177,
3032,0.0140381,0.00714111,
3034,-0.0109863,0.00722046,
3036,0.00610352,0.00714722,
3038,-0.00488281,0.00707397,
3040,0.00732422,0.00700684,
3042,-0.0012207,0.00680542,
3044,-0.00610352,0.00665283,
3046,0.0146484,0.00674438,
3048,0.010376,0.0067627,
3050,-0.0183105,0.00689697,
3052,0.00305176,0.00688477,
3054,0.00183105,0.00687256,
3056,0.000610352,0.00681152,
3058,0.00793457,0.00673218,
3060,-0.0146484,0.00675049,
3062,-0.00793457,0.00681152,
3064,-0.00732422,0.00672607,
3066,-0.00366211,0.00670776,
3068,0.000610352,0.00664063,
3070,-0.00305176,0.00661011,
3072,-0.012207,0.00668945,
3074,0.0128174,0.00679932,
3076,-0.000610352,0.00673828,
3078,-0.00915527,0.00682373,
3080,0.00915527,0.00674438,
3082,0.00549316,0.00679321,
3084,-0.0128174,0.00682983,
3086,0.0134277,0.00684814,
3088,0.00915527,0.00691528,
3090,-0.0012207,0.00682983,
3092,0.00244141,0.00671997,
3094,-0.010376,0.00679321,
3096,0.0183105,0.0069397,
3098,0.00793457,0.0069519,
3100,-0.00488281,0.00697021,
3102,0.00427246,0.00690308,
3104,0.0012207,0.00688477,
3106,0.00305176,0.00690308,
3108,0.0146484,0.00699463,
3110,-0.0146484,0.00706177,
3112,0.000610352,0.00698242,
3114,0.00305176,0.00684814,
3116,-0.00183105,0.00684814,
3118,0.00732422,0.00679932,
3120,0.0146484,0.00683594,
3122,-0.00183105,0.00682373,
3124,0.0250244,0.00699463,
3126,0.00854492,0.00704346,
3128,0.00305176,0.00700073,
3130,0.0189209,0.00709839,
3132,0.0115967,0.00721436,
3134,0.000610352,0.00718994,
3136,0.00488281,0.0071167,
3138,-0.00610352,0.00708618,
3140,0.0164795,0.00720825,
3142,0.00915527,0.00726318,
3144,-0.0183105,0.00740967,
3146,0.0128174,0.00739746,
3148,0.00732422,0.00742187,
3150,0.00244141,0.00736694,
3152,0,0.00733643,
3154,0.00976563,0.00734253,
3156,-0.0140381,0.00747681,
3158,0.0195313,0.0076416,
3160,-0.0134277,0.00770874,
3162,-0.00854492,0.00772095,
3164,0.0189209,0.00787354,
3166,0.00427246,0.00791626,
3168,0,0.00791016,
3170,0.00427246,0.0078125,
3172,-0.00732422,0.00782471,
3174,0.00732422,0.00783691,
3176,-0.00610352,0.00785522,
3178,-0.0152588,0.00797729,
3180,0.0286865,0.0081665,
3182,0.0012207,0.00817261,
3184,-0.00793457,0.00811768,
3186,0.0140381,0.00820313,
3188,0.00244141,0.00808716,
3190,0.0128174,0.00802002,
3192,0.0164795,0.00802002,
3194,-0.00793457,0.00795898,
3196,0.0189209,0.00810547,
3198,0.00610352,0.00813599,
3200,0.00305176,0.00814819,
3202,0.00793457,0.00822754,
3204,0.00732422,0.00823975,
3206,0.00427246,0.00823364,
3208,0.0195313,0.00830688,
3210,-0.00488281,0.00825806,
3212,0.00793457,0.0083374,
3214,0.0177002,0.00845947,
3216,0.0012207,0.00846558,
3218,0.012207,0.00856934,
3220,0.00976563,0.00860596,
3222,0.00854492,0.00866089,
3224,0.00488281,0.00861206,
3226,0.0146484,0.00869751,
3228,-0.00183105,0.00869141,
3230,0.0115967,0.00869751,
3232,0.00549316,0.00861206,
3234,-0.0128174,0.00863037,
3236,0.0140381,0.00870972,
3238,-0.00366211,0.00869751,
3240,-0.0012207,0.00863647,
3242,0.0231934,0.0088562,
3244,0.00549316,0.0088501,
3246,0.00244141,0.00872803,
3248,0.00549316,0.0086792,
3250,0.00305176,0.00852661,
3252,0.0299072,0.00879517,
3254,0.00610352,0.00883789,
3256,-0.0140381,0.00897217,
3258,0.00305176,0.00892334,
3260,-0.0164795,0.00894165,
3262,0.00183105,0.00888062,
3264,-0.000610352,0.00881348,
3266,-0.012207,0.00889893,
3268,-0.010376,0.00899658,
3270,0.00671387,0.0090332,
3272,-0.00610352,0.00897217,
3274,0.00854492,0.00892944,
3276,0.00366211,0.00895996,
3278,-0.00915527,0.00895996,
3280,0.0177002,0.00904541,
3282,0.00427246,0.0090332,
3284,-0.00915527,0.00899658,
3286,0.00915527,0.00895386,
3288,-0.00915527,0.00895386,
3290,0.00610352,0.00900269,
3292,0.0152588,0.00913086,
3294,-0.0134277,0.00916138,
3296,0.0170898,0.00914917,
3298,0.0115967,0.00918579,
3300,-0.00610352,0.009198,
3302,0.00854492,0.00924072,
3304,0.00366211,0.00926514,
3306,0.00488281,0.00928345,
3308,0.00976563,0.00923462,
3310,-0.00976563,0.00918579,
3312,0.00305176,0.00921021,
3314,0.00427246,0.00922241,
3316,0.0152588,0.00935669,
3318,0.00244141,0.00930786,
3320,-0.00671387,0.00922852,
3322,-0.00366211,0.00924683,
3324,0.00549316,0.00905151,
3326,-0.00549316,0.009021,
3328,-0.0109863,0.00910034,
3330,0.012207,0.0090332,
3332,0.00488281,0.00896606,
3334,-0.00244141,0.00898438,
3336,0.0177002,0.00911255,
3338,-0.0152588,0.0092041,
3340,0.0109863,0.00914917,
3342,0.0256348,0.00931396,
3344,-0.00366211,0.00916748,
3346,0.012207,0.00916138,
3348,-0.00732422,0.00916138,
3350,0.00366211,0.00917358,
3352,0.0170898,0.00934448,
3354,-0.00427246,0.00928955,
3356,-0.00244141,0.00917358,
3358,0.00610352,0.00903931,
3360,-0.0189209,0.00909424,
3362,-0.00366211,0.00904541,
3364,-0.000610352,0.0088623,
3366,-0.012207,0.00894165,
3368,-0.00671387,0.00900879,
3370,0.00732422,0.00903931,
3372,-0.00610352,0.0090271,
3374,0.0115967,0.00906982,
3376,0.00854492,0.00909424,
3378,-0.020752,0.00914917,
3380,0.0177002,0.00903931,
3382,0.0146484,0.00917358,
3384,-0.0109863,0.0092041,
3386,0.0115967,0.00917969,
3388,0.000610352,0.00916138,
3390,0.00976563,0.00913086,
3392,0.00793457,0.00904541,
3394,-0.0183105,0.00914917,
3396,0.0134277,0.00909424,
3398,0.0201416,0.00923462,
3400,-0.00244141,0.00922852,
3402,0.0201416,0.00935059,
3404,-0.00488281,0.00932617,
3406,-0.0115967,0.00939941,
3408,0.0292969,0.00949707,
3410,-0.0109863,0.00955811,
3412,-0.00915527,0.00957031,
3414,0.0170898,0.00956421,
3416,0.00183105,0.00957031,
3418,0.0012207,0.00946045,
3420,0,0.00936279,
3422,0.00244141,0.00930176,
3424,0.0219727,0.00947266,
3426,0.0115967,0.00944214,
3428,-0.0109863,0.00953369,
3430,0.0152588,0.00957031,
3432,0.0115967,0.00963135,
3434,0.00366211,0.00953979,
3436,0.0140381,0.00953979,
3438,-0.0146484,0.00964966,
3440,0.00671387,0.00970459,
3442,0.0189209,0.00966187,
3444,-0.0219727,0.00982666,
3446,0.0170898,0.00997314,
3448,0.012207,0.0100403,
3450,0.00244141,0.0100342,
3452,-0.00488281,0.00978394,
3454,0.00183105,0.00974121,
3456,0.00610352,0.00966187,
3458,0.0195313,0.00982666,
3460,-0.0189209,0.00985107,
3462,-0.00244141,0.00985718,
3464,0.00915527,0.00994263,
3466,-0.00305176,0.00985107,
3468,-0.000610352,0.00975342,
3470,0.00732422,0.00975952,
3472,-0.00488281,0.00974731,
3474,0.0128174,0.00979004,
3476,0.00183105,0.00977173,
3478,-0.0158691,0.00983887,
3480,0.0244141,0.00990601,
3482,0.0152588,0.0100159,
3484,-0.0146484,0.0100708,
3486,0.0213623,0.0101929,
3488,-0.00549316,0.0101563,
3490,0.0219727,0.0103149,
3492,0.0152588,0.0103149,
3494,-0.020752,0.0103882,
3496,0.0115967,0.0103333,
3498,0.00488281,0.0102661,
3500,0.00183105,0.0102234,
3502,-0.00671387,0.0102051,
3504,-0.00732422,0.0102417,
3506,0.00244141,0.0102173,
3508,0.0170898,0.0102905,
3510,-0.0146484,0.0103394,
3512,-0.00305176,0.0103394,
3514,0.0231934,0.0105286,
3516,-0.00305176,0.0104065,
3518,-0.000610352,0.0103882,
3520,0.00305176,0.0103516,
3522,0.00793457,0.0103943,
3524,0.00305176,0.0103699,
3526,-0.00488281,0.0103638,
3528,-0.0146484,0.0104004,
3530,0.00915527,0.0103699,
3532,-0.00610352,0.0103821,
3534,-0.0115967,0.0104736,
3536,0.0012207,0.0103088,
3538,-0.0158691,0.0103149,
3540,0.00488281,0.0102539,
3542,0.0115967,0.0101135,
3544,-0.0256348,0.0103333,
3546,0.0158691,0.0103699,
3548,0,0.0102966,
3550,-0.00427246,0.0103027,
3552,0.012207,0.0102539,
3554,-0.0012207,0.0102234,
3556,0.00854492,0.0102844,
3558,0.00793457,0.0103027,
3560,-0.012207,0.0102356,
3562,0.012207,0.010321,
3564,0.00427246,0.0103577,
3566,0.00366211,0.0102722,
3568,0.00305176,0.0102356,
3570,0.0012207,0.0101746,
3572,-0.00915527,0.0102051,
3574,0.0201416,0.0102905,
3576,0.00671387,0.0102722,
3578,0.00305176,0.0100952,
3580,-0.00305176,0.00994873,
3582,0.00793457,0.00988159,
3584,0.00732422,0.00984497,
3586,0.0213623,0.00994263,
3588,0.00244141,0.00996094,
3590,-0.00854492,0.00994873,
3592,0.0268555,0.0101379,
3594,-0.0146484,0.0101013,
3596,0.0115967,0.010083,
3598,0.00610352,0.00994263,
3600,-0.0164795,0.010083,
3602,0.00549316,0.00993652,
3604,-0.0128174,0.0100159,
3606,0.00732422,0.00997314,
3608,0.0195313,0.00987549,
3610,-0.0219727,0.00998535,
3612,0.00305176,0.00992432,
3614,0.0158691,0.00991211,
3616,-0.00305176,0.00992432,
3618,0.0012207,0.00992432,
3620,0.00488281,0.00997314,
3622,-0.010376,0.0100525,
3624,0.0152588,0.00998535,
3626,0.00732422,0.00994263,
3628,-0.00305176,0.00986328,
3630,0.0256348,0.00996704,
3632,0.00976563,0.00994873,
3634,-0.00244141,0.00993652,
3636,0.0134277,0.00993042,
3638,-0.00305176,0.00981445,
3640,0.0219727,0.00996704,
3642,0.0177002,0.00995483,
3644,-0.020752,0.00994263,
3646,0.0305176,0.0100769,
3648,0.00427246,0.00999756,
3650,-0.00366211,0.0100098,
3652,0.00915527,0.0100525,
3654,-0.0012207,0.0100464,
3656,0.0146484,0.0101318,
3658,0.0274658,0.0102112,
3660,-0.0152588,0.0101746,
3662,0.0146484,0.0102966,
3664,0.0170898,0.010376,
3666,0.0115967,0.0104614,
3668,0.00610352,0.0105164,
3670,0.00915527,0.0105347,
3672,-0.000610352,0.0104919,
3674,0.0335693,0.0106995,
3676,-0.00915527,0.0107727,
3678,-0.00915527,0.0107056,
3680,0.0250244,0.0107117,
3682,0,0.0105591,
3684,-0.00610352,0.0104736,
3686,0.0115967,0.010376,
3688,-0.00366211,0.0103577,
3690,-0.0012207,0.0101501,
3692,0.0115967,0.0101135,
3694,-0.0189209,0.0100952,
3696,0.0109863,0.0100891,
3698,-0.000610352,0.0100464,
3700,-0.0152588,0.0101807,
3702,0.0109863,0.0102234,
3704,-0.00793457,0.0102295,
3706,0.00610352,0.0102661,
3708,0.0140381,0.0102356,
3710,0.0012207,0.0101013,
3712,0.00793457,0.0101501,
3714,0.0219727,0.0101379,
3716,-0.00671387,0.0101746,
3718,0.0134277,0.0103027,
3720,0.00427246,0.0103149,
3722,-0.00976563,0.0103333,
3724,0.00732422,0.010376,
3726,-0.00427246,0.0103699,
3728,-0.0115967,0.0103394,
3730,0.012207,0.0103699,
3732,0,0.0103088,
3734,0.00488281,0.0102417,
3736,0.020752,0.010437,
3738,-0.0250244,0.0105286,
3740,0.0262451,0.0107422,
3742,0.00244141,0.0106506,
3744,-0.0250244,0.0106445,
3746,0.0164795,0.0106506,
3748,0.00976563,0.0107483,
3750,-0.00732422,0.0107788,
3752,-0.00427246,0.0106995,
3754,0.00488281,0.0107361,
3756,0.020752,0.0108582,
3758,0.00793457,0.0108582,
3760,-0.00976563,0.0108337,
3762,0.0109863,0.0108215,
3764,0.0323486,0.0111023,
3766,0.00915527,0.0111572,
3768,-0.0128174,0.0112549,
3770,0.00183105,0.011261,
3772,0.0164795,0.0113342,
3774,0.00610352,0.0111938,
3776,-0.00549316,0.0111816,
3778,-0.00183105,0.0111694,
3780,-0.00305176,0.0111694,
3782,0.010376,0.0111938,
3784,-0.0268555,0.0113892,
3786,0.00427246,0.0112183,
3788,-0.00183105,0.0112122,
3790,0.00488281,0.0111755,
3792,0.012207,0.0110291,
3794,-0.00854492,0.010968,
3796,0.000610352,0.0108582,
3798,0.00793457,0.0108765,
3800,-0.010376,0.0108154,
3802,0.022583,0.0109863,
3804,-0.0189209,0.0110474,
3806,-0.00488281,0.0110229,
3808,0.0146484,0.0109741,
3810,-0.0189209,0.0109436,
3812,0.00305176,0.0109436,
3814,0.0299072,0.011084,
3816,0.00427246,0.0110962,
3818,0.00671387,0.0111511,
3820,0.032959,0.0114319,
3822,-0.00183105,0.0113464,
3824,0.010376,0.0112976,
3826,0.0109863,0.0113342,
3828,-0.0146484,0.0114502,
3830,0.00366211,0.0112305,
3832,-0.0109863,0.0112427,
3834,-0.00915527,0.0113098,
3836,-0.00366211,0.0112122,
3838,-0.0238037,0.0114197,
3840,0.00549316,0.0112549,
3842,0.0476074,0.011554,
3844,-0.0421143,0.0117676,
3846,0.0286865,0.0117493,
3848,0.0189209,0.0118958,
3850,-0.00366211,0.0118958,
3852,-0.00244141,0.0118286,
3854,0.00671387,0.0118835,
3856,0.00305176,0.0117676,
3858,0.0189209,0.0116821,
3860,-0.0317383,0.0118469,
3862,0.0109863,0.0118103,
3864,0.0244141,0.0118835,
3866,-0.0213623,0.0119812,
3868,0.00732422,0.0119934,
3870,0.0183105,0.012085,
3872,-0.00183105,0.0120972,
3874,0.00366211,0.0117981,
3876,-0.00244141,0.011731,
3878,-0.00183105,0.0116577,
3880,0.0140381,0.0115479,
3882,-0.00427246,0.0115906,
3884,-0.00732422,0.0116028,
3886,0.00793457,0.0115662,
3888,-0.0134277,0.0116638,
3890,0.0128174,0.0117798,
3892,0.0146484,0.0118103,
3894,-0.0213623,0.0118347,
3896,0.0164795,0.0118896,
3898,0.00610352,0.0119446,
3900,0.00183105,0.0118103,
3902,-0.00305176,0.011731,
3904,0.00854492,0.0117371,
3906,0.020752,0.0118835,
3908,-0.00854492,0.0118286,
3910,-0.00488281,0.0118652,
3912,0.0109863,0.0118958,
3914,0.00671387,0.0117432,
3916,0.00183105,0.0116943,
3918,0.00549316,0.011615,
3920,0.00427246,0.011615,
3922,-0.00732422,0.0115906,
3924,0.0140381,0.0116577,
3926,0,0.011615,
3928,-0.00244141,0.0115234,
3930,0.00427246,0.0114441,
3932,0.00610352,0.0115051,
3934,0.00244141,0.0114807,
3936,0.00732422,0.0113464,
3938,0.00244141,0.0111206,
3940,0.0219727,0.0110779,
3942,0.0177002,0.0112305,
3944,-0.0128174,0.0111084,
3946,0.0360107,0.0113037,
3948,0.00305176,0.0112366,
3950,0.0109863,0.0112732,
3952,0.0274658,0.0115051,
3954,0.00671387,0.0115234,
3956,0.00427246,0.0113586,
3958,-0.00183105,0.0112976,
3960,-0.00732422,0.0112732,
3962,0.0146484,0.0113098,
3964,0.0140381,0.0111267,
3966,-0.0152588,0.0111877,
3968,-0.00183105,0.0110779,
3970,-0.00183105,0.0110779,
3972,0.0109863,0.0110229,
3974,0.00183105,0.0109802,
3976,0,0.0109253,
3978,-0.00244141,0.0109314,
3980,0.0299072,0.0112,
3982,-0.000610352,0.0111023,
3984,-0.0140381,0.0109741,
3986,0.0109863,0.0110413,
3988,0.00610352,0.011084,
3990,0.00549316,0.0110901,
3992,0.00244141,0.0109924,
3994,-0.00305176,0.0109375,
3996,0.0152588,0.011084,
3998,-0.00854492,0.0110901,
4000,-0.0140381,0.0111267,
4002,0.032959,0.0112305,
4004,0.000610352,0.0110474,
4006,-0.00488281,0.0110474,
4008,0.0140381,0.0110413,
4010,-0.00427246,0.0108948,
4012,0.0396729,0.011261,
4014,0.0537109,0.011499,
4016,0.0201416,0.0116577,
4018,0.0195313,0.0117859,
4020,0.0384521,0.0118408,
4022,0.0500488,0.012323,
4024,0.0921631,0.0131409,
4026,0.0250244,0.0132813,
4028,0.00488281,0.0131836,
4030,0.0726318,0.0138733,
4032,0.0769043,0.0145325,
4034,0.0653076,0.015094,
4036,0.0500488,0.0155579,
4038,0.00427246,0.0153625,
4040,0.0354004,0.0156616,
4042,0.0585938,0.0157715,
4044,-0.0262451,0.0156128,
4046,-0.00976563,0.0154236,
4048,0.0219727,0.0154541,
4050,-0.0634766,0.0160522,
4052,-0.0378418,0.0164063,
4054,-0.090332,0.0172424,
4056,-0.0158691,0.0173706,
4058,-0.0201416,0.0173828,
4060,-0.0769043,0.0178345,
4062,-0.0115967,0.0178406,
4064,-0.0134277,0.0177307,
4066,-0.0128174,0.0176453,
4068,0.0671387,0.0182434,
4070,0.247192,0.0205322,
4072,0.12207,0.0217346,
4074,-0.0445557,0.0221436,
4076,0.0366211,0.0224854,
4078,0.133667,0.0238037,
4080,0.00732422,0.0237366,
4082,-0.0671387,0.0243652,
4084,-0.0775146,0.0250671,
4086,-0.117798,0.0261658,
4088,-0.0402832,0.0264343,
4090,-0.0830078,0.0271362,
4092,-0.0463867,0.0274536,
4094,0.0152588,0.0273926,
4096,0.114746,0.0283752,
4098,0.0878906,0.0291931,
4100,0.0445557,0.0296204,
4102,-0.032959,0.0299194,
4104,0.0213623,0.0300476,
4106,0.0463867,0.030304,
4108,0.088501,0.0311035,
4110,0.0408936,0.0314636,
4112,-0.0323486,0.0316772,
4114,-0.043335,0.0320435,
4116,-0.0592041,0.0326172,
4118,0.00671387,0.0326294,
4120,0.12207,0.0338074,
4122,-0.00671387,0.0338013,
4124,-0.0286865,0.0339478,
4126,-0.0897217,0.034845,
4128,0.0152588,0.0349731,
4130,-0.0738525,0.0356689,
4132,-0.0256348,0.0358643,
4134,0.057373,0.0364136,
4136,0.0012207,0.0363525,
4138,-0.141602,0.0377441,
4140,-0.0653076,0.0381775,
4142,-0.0561523,0.038562,
4144,-0.0201416,0.0386353,
4146,-0.0408936,0.0386841,
4148,-0.0335693,0.0389893,
4150,-0.0439453,0.0393188,
4152,-0.0134277,0.0391785,
4154,-0.169067,0.040802,
4156,-0.0592041,0.0413513,
4158,0.0726318,0.0420593,
4160,-0.0665283,0.0426514,
4162,0.0195313,0.0427002,
4164,0.0177002,0.0427368,
4166,-0.0604248,0.0431885,
4168,-0.0848389,0.0440186,
4170,0.0494385,0.0444946,
4172,-0.00671387,0.0444519,
4174,0.0708008,0.0451416,
4176,-0.117798,0.0463196,
4178,-0.116577,0.0474609,
4180,-0.00671387,0.047229,
4182,0.00976563,0.0473206,
4184,0.111084,0.048291,
4186,0.0567627,0.0487488,
4188,-0.088501,0.0495728,
4190,0.0799561,0.0503174,
4192,-0.0640869,0.0509338,
4194,-0.0897217,0.0518005,
4196,-0.0152588,0.0518005,
4198,-0.12085,0.0529236,
4200,-0.131226,0.0540955,
4202,-0.144043,0.0552063,
4204,-0.112305,0.0563232,
4206,-0.00427246,0.0563171,
4208,0.00427246,0.0562195,
4210,-0.0585938,0.0567627,
4212,0.0384521,0.0567505,
4214,0.15564,0.0577698,
4216,0.010376,0.0576721,
4218,-0.0384521,0.0578613,
4220,0.0616455,0.0580933,
4222,0.139771,0.0589905,
4224,-0.0292969,0.0583618,
4226,-0.0366211,0.0584778,
4228,-0.010376,0.0585327,
4230,-0.0244141,0.0580505,
4232,-0.111084,0.0583923,
4234,-0.0323486,0.0580627,
4236,0.0567627,0.0581299,
4238,-0.0305176,0.0583923,
4240,-0.0579834,0.0586182,
4242,0.129395,0.0593262,
4244,0.0427246,0.059491,
4246,-0.03479,0.0597412,
4248,-0.0665283,0.0601868,
4250,0.0384521,0.0599365,
4252,-0.0158691,0.0597168,
4254,-0.172729,0.0605408,
4256,-0.157471,0.0619568,
4258,-0.126953,0.0630249,
4260,-0.158081,0.0638367,
4262,-0.123901,0.0649597,
4264,0.0274658,0.0651001,
4266,0.178223,0.0667542,
4268,-0.0238037,0.0663208,
4270,-0.0811768,0.0646606,
4272,0.000610352,0.063446,
4274,0.221558,0.0652161,
4276,-0.078125,0.0656311,
4278,0.0695801,0.0649902,
4280,-0.145264,0.0663696,
4282,-0.134888,0.0670471,
4284,-0.0616455,0.0668884,
4286,-0.0653076,0.0663635,
4288,-0.098877,0.0669495,
4290,-0.0158691,0.0662781,
4292,0.0604248,0.0664185,
4294,-0.00610352,0.0663269,
4296,0.112915,0.0663086,
4298,-0.00244141,0.0654541,
4300,0.118408,0.0661926,
4302,0.123291,0.0670959,
4304,0.211792,0.0690002,
4306,0.0469971,0.0690063,
4308,-0.130005,0.0694214,
4310,0.0238037,0.0692505,
4312,0.0335693,0.0692627,
4314,0.043335,0.0692627,
4316,-0.100098,0.0696716,
4318,-0.0482178,0.0700867,
4320,-0.00305176,0.0688965,
4322,0.0457764,0.0692871,
4324,0.0170898,0.0691711,
4326,0.055542,0.0688293,
4328,0.098877,0.0696655,
4330,0.0982666,0.0699097,
4332,0.0994873,0.0706482,
4334,0.0585938,0.0706604,
4336,0.0323486,0.0709717,
4338,0.0708008,0.0702637,
4340,0.209351,0.0717041,
4342,0.0189209,0.0713318,
4344,0.0665283,0.0717957,
4346,0.175171,0.0731384,
4348,0.22583,0.075061,
4350,0.0305176,0.0749268,
4352,-0.0366211,0.0751587,
4354,0.0854492,0.0743225,
4356,0.119019,0.0749207,
4358,-0.0140381,0.0743347,
4360,0.0286865,0.0739563,
4362,-0.0299072,0.0740601,
4364,-0.0128174,0.0740112,
4366,0.0439453,0.0738464,
4368,0.098877,0.0739868,
4370,0.195313,0.0754456,
4372,0.178223,0.0771606,
4374,0.0708008,0.0771606,
4376,0.164185,0.0776245,
4378,0.146484,0.0779236,
4380,0.186768,0.0797241,
4382,0.0701904,0.0803284,
4384,-0.00549316,0.0792725,
4386,-0.0140381,0.0788452,
4388,0.119629,0.0791565,
4390,0.00427246,0.0783997,
4392,0.0610352,0.0783691,
4394,0.00610352,0.077533,
4396,0.0756836,0.0781372,
4398,0.0201416,0.0771301,
4400,0.10498,0.0768677,
4402,0.00732422,0.0755005,
4404,0.0421143,0.0747986,
4406,0.0750732,0.0755066,
4408,-0.03479,0.0758118,
4410,0.00671387,0.075293,
4412,0.0396729,0.0753052,
4414,0.0286865,0.0740356,
4416,0.12085,0.0751404,
4418,0.0500488,0.0752563,
4420,0.0567627,0.0752075,
4422,0.164185,0.0754517,
4424,0.119019,0.0763489,
4426,0.0115967,0.0760986,
4428,0.168457,0.0776794,
4430,0.0708008,0.0781433,
4432,-0.00793457,0.0771118,
4434,0.0762939,0.0775513,
4436,0.178833,0.078772,
4438,0.0579834,0.0790466,
4440,0.0537109,0.0790039,
4442,0.0115967,0.0778259,
4444,0.162964,0.0790283,
4446,0.147095,0.0801514,
4448,0.0793457,0.0802795,
4450,0.101929,0.0809143,
4452,0.162964,0.0823853,
4454,0.00854492,0.0807434,
4456,-0.0231934,0.0794006,
4458,0.150757,0.0796387,
4460,0.0994873,0.0790527,
4462,0.318604,0.0809998,
4464,0.0994873,0.08172,
4466,-0.327148,0.0832092,
4468,0.0842285,0.0838135,
4470,0.192871,0.0849304,
4472,-0.0360107,0.0852844,
4474,-0.0244141,0.083313,
4476,-0.0360107,0.0828918,
4478,-0.130615,0.0835022,
4480,0.0952148,0.0830017,
4482,0.111084,0.0827637,
4484,0.0170898,0.0823181,
4486,0.0762939,0.082428,
4488,0.10498,0.082489,
4490,0.067749,0.0830078,
4492,0.00915527,0.0824951,
4494,-0.00854492,0.0825195,
4496,0.0842285,0.0822327,
4498,0.0201416,0.0824097,
4500,0.0396729,0.0816223,
4502,-0.012207,0.0805115,
4504,0.0311279,0.0787048,
4506,0.112305,0.0793579,
4508,-0.0372314,0.0784302,
4510,0.0360107,0.0785522,
4512,0.10376,0.0792542,
4514,0.0390625,0.0792114,
4516,0.032959,0.07854,
4518,0.0415039,0.0784729,
4520,0.112305,0.0795654,
4522,0.0158691,0.0792664,
4524,0.032959,0.079425,
4526,0.055542,0.079425,
4528,0.0683594,0.0791199,
4530,0.00244141,0.0781616,
4532,0.0360107,0.0775269,
4534,0.114746,0.0780884,
4536,0.0341797,0.0781067,
4538,-0.0146484,0.0775452,
4540,0.142212,0.0768738,
4542,0.0640869,0.0773254,
4544,0.100098,0.0776611,
4546,0.0921631,0.0768311,
4548,0.0238037,0.0748108,
4550,0.020752,0.0747131,
4552,0.0732422,0.0750793,
4554,-0.0012207,0.0742371,
4556,0.0256348,0.0733032,
4558,0.113525,0.0742981,
4560,0.0787354,0.0747986,
4562,0.0158691,0.0746582,
4564,-0.0219727,0.0747498,
4566,-0.00610352,0.0743713,
4568,0.0622559,0.0740051,
4570,0.00854492,0.0721375,
4572,0.000610352,0.0703613,
4574,0.032959,0.0699829,
4576,-0.0769043,0.0691101,
4578,-0.090332,0.0685486,
4580,0.0476074,0.067157,
4582,0.0219727,0.0666748,
4584,0.00183105,0.0666382,
4586,-0.0189209,0.066687,
4588,0.020752,0.0656982,
4590,0.0494385,0.0661499,
4592,0.0561523,0.0661011,
4594,0.0866699,0.0669067,
4596,0.0543213,0.0666931,
4598,-0.0585938,0.0670776,
4600,0.0854492,0.0668823,
4602,0.0482178,0.0672913,
4604,0.0579834,0.06745,
4606,-0.115356,0.0678528,
4608,-0.00854492,0.0675903,
4610,-0.0384521,0.0679077,
4612,0.0256348,0.0677673,
4614,0.0262451,0.0677429,
4616,0.0769043,0.0673035,
4618,0.0445557,0.0672485,
4620,0.0183105,0.066864,
4622,0.0457764,0.0656799,
4624,0.103149,0.0655212,
4626,0.0128174,0.0655334,
4628,0.0714111,0.064563,
4630,0.0286865,0.0641418,
4632,-0.00671387,0.0641296,
4634,-0.0469971,0.0638367,
4636,0.0689697,0.062738,
4638,0.0219727,0.0623779,
4640,0.0231934,0.0620728,
4642,0.0140381,0.0620972,
4644,-0.0463867,0.0609314,
4646,-0.0872803,0.0603333,
4648,0.0250244,0.05979,
4650,-0.032959,0.0591003,
4652,-0.0372314,0.057843,
4654,-0.0744629,0.0585022,
4656,0.0286865,0.0585571,
4658,0.0286865,0.0573364,
4660,-0.107422,0.0574158,
4662,0.00732422,0.054303,
4664,0.0469971,0.0537781,
4666,0.0250244,0.0507568,
4668,0.00549316,0.0499695,
4670,-0.0762939,0.0488037,
4672,0.0244141,0.0486877,
4674,0.0512695,0.0489563,
4676,-0.0512695,0.0491089,
4678,-0.00793457,0.0478821,
4680,0.0488281,0.0474182,
4682,0.0146484,0.0464539,
4684,0.0341797,0.0466248,
4686,0.0646973,0.0465088,
4688,-0.0146484,0.0456055,
4690,-0.0109863,0.0450378,
4692,0.126343,0.0462097,
4694,0.101318,0.0471375,
4696,0.128784,0.047583,
4698,-0.00793457,0.0474609,
4700,0.00427246,0.0471069,
4702,0.067749,0.0476624,
4704,0.0115967,0.047467,
4706,0.0769043,0.047113,
4708,0.0494385,0.0472351,
4710,-0.0512695,0.0473877,
4712,-0.022583,0.0465759,
4714,-0.0421143,0.0466064,
4716,-0.0805664,0.0470825,
4718,-0.0537109,0.0472046,
4720,0.00854492,0.046167,
4722,-0.00244141,0.0460327,
4724,-0.0469971,0.0461731,
4726,0.0598145,0.0462158,
4728,-0.00610352,0.0455933,
4730,0.00549316,0.0456238,
4732,-0.0299072,0.0455627,
4734,0.131836,0.0457336,
4736,0.0213623,0.0456055,
4738,-0.161743,0.0470764,
4740,0.0402832,0.0460571,
4742,0.0366211,0.0457825,
4744,-0.20752,0.0468567,
4746,-0.0549316,0.0464844,
4748,0.0012207,0.0462585,
4750,-0.0408936,0.04646,
4752,-0.0335693,0.0460632,
4754,-0.0189209,0.0462402,
4756,0.15564,0.0475403,
4758,0.0152588,0.0465576,
4760,0.0415039,0.0461853,
4762,-0.0415039,0.0464417,
4764,0.0653076,0.046875,
4766,0.0622559,0.0474365,
4768,-0.0592041,0.047406,
4770,-0.0726318,0.0480469,
4772,-0.0500488,0.0485413,
4774,-0.0170898,0.0483826,
4776,-0.032959,0.0479431,
4778,0.0494385,0.0475342,
4780,0.0732422,0.0477905,
4782,0.162964,0.0492004,
4784,0.0610352,0.0497925,
4786,-0.0958252,0.0505615,
4788,-0.010376,0.0504578,
4790,0.108032,0.0510437,
4792,-0.0616455,0.0510986,
4794,-0.108643,0.0513184,
4796,-0.0299072,0.0510742,
4798,0.010376,0.050592,
4800,-0.0140381,0.0498779,
4802,0.174561,0.0511414,
4804,0.0665283,0.0512268,
4806,0.111694,0.0511902,
4808,0.0585938,0.0516907,
4810,-0.0415039,0.0517212,
4812,0.12085,0.0526733,
4814,0.0878906,0.0532898,
4816,-0.0549316,0.0530701,
4818,-0.0152588,0.0527771,
4820,-0.125732,0.0538513,
4822,-0.067749,0.054071,
4824,0.0933838,0.0539734,
4826,0.152588,0.0553711,
4828,0.00244141,0.0546814,
4830,-0.119019,0.0555847,
4832,-0.0695801,0.0562134,
4834,0.010376,0.0558472,
4836,0.0115967,0.0552734,
4838,0.000610352,0.0550598,
4840,-0.0878906,0.0557068,
4842,-0.12085,0.0567749,
4844,-0.147705,0.0577881,
4846,0.012207,0.0570374,
4848,0.00549316,0.056842,
4850,-0.000610352,0.0565186,
4852,0.0341797,0.056488,
4854,-0.0396729,0.0561401,
4856,0.010376,0.055957,
4858,0.00793457,0.0557495,
4860,0.0189209,0.0548645,
4862,0.0250244,0.0550415,
4864,0.0335693,0.0549072,
4866,-0.0579834,0.0552368,
4868,-0.00488281,0.0552307,
4870,0.045166,0.0549194,
4872,0.10376,0.0557129,
4874,-0.0201416,0.0554016,
4876,0.159912,0.056488,
4878,0.0549316,0.056958,
4880,-0.0469971,0.0569397,
4882,0.0970459,0.0577637,
4884,0.106812,0.05849,
4886,-0.0311279,0.0581543,
4888,-0.0360107,0.0583679,
4890,0.0158691,0.0584167,
4892,-0.0610352,0.0577637,
4894,-0.0189209,0.0569397,
4896,-0.00488281,0.0557007,
4898,-0.0512695,0.056134,
4900,-0.00366211,0.0561279,
4902,0.0128174,0.0555786,
4904,-0.043335,0.055896,
4906,0.0323486,0.0554504,
4908,0.103149,0.0559875,
4910,-0.020752,0.0556824,
4912,-0.022583,0.0556824,
4914,0.114136,0.0564026,
4916,0.146484,0.0570618,
4918,0.0189209,0.0567139,
4920,-0.020752,0.0568359,
4922,-0.00793457,0.0568909,
4924,-0.0256348,0.0566772,
4926,0.101318,0.0570923,
4928,-0.0115967,0.0571472,
4930,-0.0891113,0.0579834,
4932,-0.0683594,0.0583679,
4934,-0.0927734,0.0579773,
4936,-0.0549316,0.058313,
4938,0.0299072,0.0569946,
4940,-0.067749,0.0572693,
4942,-0.0469971,0.057373,
4944,-0.0531006,0.0558289,
4946,0.0109863,0.0553894,
4948,-0.0170898,0.0555481,
4950,0.057373,0.0557129,
4952,0.0891113,0.0562683,
4954,0.0653076,0.0567322,
4956,0.15564,0.0567322,
4958,-0.0463867,0.0570435,
4960,0.0775146,0.0574036,
4962,0.0494385,0.0574829,
4964,0.0439453,0.0572693,
4966,-0.0213623,0.0568604,
4968,-0.0219727,0.056488,
4970,-0.0762939,0.0565247,
4972,-0.0518799,0.056543,
4974,0.0354004,0.0567261,
4976,-0.00976563,0.0564941,
4978,-0.00671387,0.0560669,
4980,0.0128174,0.0554626,
4982,0.0213623,0.0540466,
4984,-0.0146484,0.0535828,
4986,0.0750732,0.0533752,
4988,-0.00976563,0.0533691,
4990,0.088501,0.0531738,
4992,-0.000610352,0.0525635,
4994,-0.12146,0.0526917,
4996,0.0323486,0.0527161,
4998,0.00305176,0.0526428,
5000,0.00610352,0.0525635,
5002,0.00732422,0.0508911,
5004,-0.0280762,0.0505066,
5006,-0.022583,0.0496155,
5008,0.00976563,0.0491272,
5010,0.0457764,0.0491699,
5012,0.0134277,0.0480957,
5014,0.012207,0.0473389,
5016,-0.0231934,0.0470215,
5018,0.0231934,0.0471008,
5020,0.0128174,0.0459717,
5022,-0.0592041,0.0458862,
5024,-0.0238037,0.0451904,
5026,-0.0158691,0.0438232,
5028,-0.0140381,0.0439392,
5030,0.0958252,0.0437073,
5032,-0.0500488,0.043512,
5034,-0.0390625,0.0437988,
5036,-0.00793457,0.0437622,
5038,-0.0231934,0.043988,
5040,0.0708008,0.0438171,
5042,0.0305176,0.0429138,
5044,-0.0323486,0.0417603,
5046,-0.0177002,0.0418152,
5048,0.000610352,0.0417664,
5050,-0.043335,0.0421936,
5052,0.0469971,0.0423218,
5054,0.0665283,0.0425903,
5056,0.0512695,0.0429993,
5058,0.020752,0.0431274,
5060,-0.00183105,0.0429565,
5062,0.0164795,0.0428711,
5064,0.102539,0.0435608,
5066,0.0128174,0.0431091,
5068,0.0537109,0.0435974,
5070,-0.137939,0.0445251,
5072,-0.0323486,0.043811,
5074,-0.0189209,0.0437988,
5076,-0.0506592,0.0427063,
5078,-0.0427246,0.0425842,
5080,-0.0238037,0.0423523,
5082,-0.0323486,0.0417053,
5084,0.0219727,0.0408569,
5086,0.045166,0.0409973,
5088,-0.0427246,0.0410645,
5090,0.150757,0.0424133,
5092,-0.010376,0.0419067,
5094,0.0354004,0.0420715,
5096,-0.00854492,0.0421082,
5098,0.0305176,0.0419006,
5100,-0.0152588,0.0420166,
5102,-0.0134277,0.0420227,
5104,-0.0140381,0.0417297,
5106,-0.0354004,0.0417603,
5108,-0.000610352,0.0407349,
5110,0.032959,0.0408569,
5112,0.0915527,0.0415466,
5114,0.0189209,0.0405945,
5116,-0.032959,0.0394592,
5118,0.0506592,0.0397766,
5120,0.0213623,0.0397827,
5122,-0.0305176,0.0400085,
5124,0.00305176,0.0397827,
5126,-0.0469971,0.0392395,
5128,-0.000610352,0.0391296,
5130,-0.0012207,0.0382507,
5132,0.0274658,0.0378418,
5134,-0.0311279,0.0372253,
5136,0.0402832,0.0370789,
5138,-0.00671387,0.0368469,
5140,0.0732422,0.0369019,
5142,-0.00976563,0.0365295,
5144,-0.0115967,0.0361145,
5146,-0.00610352,0.0360657,
5148,-0.0354004,0.0362488,
5150,-0.0305176,0.0359802,
5152,-0.00793457,0.0351685,
5154,0.0463867,0.0349792,
5156,0.0396729,0.0338196,
5158,0.0640869,0.0339966,
5160,-0.0256348,0.0334778,
5162,0.0488281,0.0334717,
5164,0.032959,0.0333618,
5166,0.0323486,0.0334717,
5168,0.00671387,0.0333191,
5170,0.0402832,0.032959,
5172,-0.0531006,0.0329712,
5174,-0.0366211,0.0329834,
5176,-0.0683594,0.0335693,
5178,-0.0231934,0.0337341,
5180,-0.00610352,0.033667,
5182,-0.032959,0.033783,
5184,-0.0183105,0.0338196,
5186,-0.0012207,0.0330811,
5188,-0.0164795,0.0331482,
5190,0.0506592,0.0327698,
5192,0.0549316,0.033313,
5194,-0.0469971,0.0325684,
5196,0.0378418,0.0326233,
5198,0.0299072,0.0328918,
5200,0.0537109,0.0333679,
5202,-0.0177002,0.0334717,
5204,0.0152588,0.0333435,
5206,-0.0476074,0.0335937,
5208,0.0769043,0.0342651,
5210,-0.022583,0.0340332,
5212,0.090332,0.0348022,
5214,0.00305176,0.0347107,
5216,-0.0671387,0.0351501,
5218,-0.0268555,0.0351868,
5220,0.0195313,0.0352539,
5222,0.0292969,0.0349548,
5224,-0.032959,0.0350464,
5226,-0.0158691,0.0350464,
5228,-0.0714111,0.0356201,
5230,-0.0439453,0.0351013,
5232,0.00549316,0.0346558,
5234,-0.0115967,0.0343811,
5236,0.043335,0.0347351,
5238,-0.0457764,0.0349609,
5240,-0.00366211,0.0342896,
5242,0.136719,0.0353516,
5244,-0.000610352,0.0350342,
5246,0.0524902,0.0353821,
5248,0.0341797,0.0357178,
5250,-0.0195313,0.0354797,
5252,0.0305176,0.0353149,
5254,-0.0775146,0.0354248,
5256,-0.0140381,0.0350525,
5258,-0.0109863,0.0349548,
5260,-0.000610352,0.0349426,
5262,0.0531006,0.0353088,
5264,-0.100708,0.0352905,
5266,0.0653076,0.0358154,
5268,0.0775146,0.0360535,
5270,0.0756836,0.0354309,
5272,-0.0598145,0.0357056,
5274,-0.022583,0.0357422,
5276,-0.0518799,0.0357544,
5278,-0.055542,0.0358826,
5280,-0.0280762,0.0359253,
5282,-0.010376,0.0357056,
5284,-0.0189209,0.035675,
5286,-0.00183105,0.0352417,
5288,0.0457764,0.0352722,
5290,0.045166,0.0342163,
5292,0.0872803,0.0349854,
5294,-0.0842285,0.0354736,
5296,0.00732422,0.0354614,
5298,-0.0274658,0.0354309,
5300,-0.0811768,0.0360901,
5302,-0.0250244,0.0362061,
5304,-0.0897217,0.0369629,
5306,-0.0531006,0.0371399,
5308,-0.0213623,0.0373474,
5310,-0.0158691,0.0371765,
5312,0.0494385,0.0367554,
5314,0.0671387,0.0372375,
5316,0.0427246,0.0373352,
5318,0.0769043,0.0375977,
5320,0.090332,0.0382874,
5322,-0.0567627,0.0385498,
5324,0.043335,0.0389526,
5326,0.0250244,0.0387329,
5328,0.00427246,0.0387695,
5330,-0.00976563,0.038855,
5332,-0.0366211,0.0389465,
5334,-0.0146484,0.0387817,
5336,-0.0830078,0.039209,
5338,-0.0262451,0.0394043,
5340,0,0.0386719,
5342,0.0402832,0.0389771,
5344,0.0378418,0.0392395,
5346,-0.0170898,0.0393494,
5348,0.0610352,0.0396057,
5350,0.0134277,0.0394348,
5352,0.0280762,0.0396362,
5354,0.0012207,0.0391846,
5356,-0.00610352,0.0388489,
5358,-0.012207,0.0383301,
5360,-0.0671387,0.0387451,
5362,-0.0537109,0.0387939,
5364,-0.0292969,0.0387573,
5366,-0.0183105,0.0386169,
5368,-0.0488281,0.0390381,
5370,0.0482178,0.0391174,
5372,-0.0183105,0.0387695,
5374,0.0396729,0.0388,
5376,0.000610352,0.0381226,
5378,0.0164795,0.0380554,
5380,0.0653076,0.0386475,
5382,-0.0653076,0.0389709,
5384,0.00488281,0.0388367,
5386,-0.00183105,0.0388428,
5388,-0.020752,0.0388855,
5390,0.0299072,0.038678,
5392,0.088501,0.0390137,
5394,-0.0622559,0.0391663,
5396,0.0494385,0.0392822,
5398,0.0231934,0.0392151,
5400,-0.00549316,0.0387329,
5402,-0.000610352,0.038562,
5404,-0.0415039,0.0388245,
5406,0.0134277,0.0384827,
5408,-0.00366211,0.0377502,
5410,-0.0830078,0.0383545,
5412,-0.00610352,0.0375122,
5414,0.0445557,0.0379272,
5416,-0.00915527,0.0373474,
5418,0.0366211,0.0374451,
5420,0.0128174,0.0373779,
5422,0.0463867,0.0375488,
5424,-0.00732422,0.0372925,
5426,-0.067749,0.0378113,
5428,0.0256348,0.0373535,
5430,0.0335693,0.0372498,
5432,0.00183105,0.0372131,
5434,-0.0274658,0.0373718,
5436,0.0201416,0.0371399,
5438,-0.0280762,0.0369629,
5440,0.0268555,0.0371948,
5442,0.0262451,0.0360901,
5444,0.0134277,0.0362183,
5446,-0.0701904,0.0363953,
5448,0.000610352,0.0360596,
5450,-0.00732422,0.0359375,
5452,0.00732422,0.0357056,
5454,-0.0817871,0.0357483,
5456,-0.0250244,0.0358582,
5458,0.0244141,0.0359924,
5460,-0.0488281,0.0364746,
5462,-0.0213623,0.0361572,
5464,0.0396729,0.0355469,
5466,-0.0170898,0.0350647,
5468,0,0.0342896,
5470,0.00915527,0.0336243,
5472,-0.00305176,0.0330566,
5474,0.0286865,0.0331177,
5476,0.0476074,0.033075,
5478,0.0177002,0.0326965,
5480,-0.0506592,0.0329224,
5482,0.0213623,0.0330322,
5484,0.133057,0.0341736,
5486,-0.0366211,0.0345215,
5488,-0.0140381,0.0342041,
5490,-0.0158691,0.0339111,
5492,0.0500488,0.0335388,
5494,0.0360107,0.0330566,
5496,-0.0598145,0.0335815,
5498,0.057373,0.0338806,
5500,-0.010376,0.0331726,
5502,-0.0878906,0.0338013,
5504,-0.0286865,0.0331909,
5506,0.00305176,0.0326904,
5508,-0.0183105,0.0326599,
5510,-0.0646973,0.0331482,
5512,-0.0311279,0.0329651,
5514,-0.0378418,0.0326721,
5516,-0.00183105,0.0322632,
5518,0.0360107,0.0318542,
5520,-0.0500488,0.0314514,
5522,0.0384521,0.0312683,
5524,0.00183105,0.0308533,
5526,0.0476074,0.0310791,
5528,0.00305176,0.0310669,
5530,0.010376,0.031073,
5532,-0.00976563,0.0308044,
5534,-0.0213623,0.0308716,
5536,0.0488281,0.0305298,
5538,0.0170898,0.0304382,
5540,-0.0170898,0.0306091,
5542,-0.00610352,0.0302673,
5544,-0.0610352,0.0304993,
5546,0.090332,0.0312317,
5548,-0.0585938,0.0312073,
5550,0.0683594,0.0317566,
5552,0.010376,0.0315796,
5554,-0.0549316,0.0321167,
5556,-0.0274658,0.0323303,
5558,0.0708008,0.0329163,
5560,-0.00183105,0.0322632,
5562,-0.0518799,0.0322449,
5564,0.0384521,0.0323364,
5566,-0.0189209,0.0323425,
5568,0.0286865,0.0321411,
5570,-0.0598145,0.0322571,
5572,0.020752,0.0322815,
5574,0.0109863,0.0319946,
5576,-0.0274658,0.0322632,
5578,-0.00366211,0.032135,
5580,-0.0488281,0.0319702,
5582,0.00915527,0.0314087,
5584,-0.012207,0.0314819,
5586,0.00244141,0.031488,
5588,0.0964355,0.0322449,
5590,-0.0726318,0.0326721,
5592,0.0531006,0.0323181,
5594,-0.012207,0.0318176,
5596,-0.00549316,0.0313782,
5598,0.012207,0.0312683,
5600,-0.0238037,0.0314514,
5602,-0.0476074,0.0319214,
5604,-0.0317383,0.0318237,
5606,0.00183105,0.0317078,
5608,-0.0274658,0.0319458,
5610,0.0292969,0.0314087,
5612,0.088501,0.0322327,
5614,0.00732422,0.0318604,
5616,0.0585938,0.0323547,
5618,-0.0579834,0.0325684,
5620,0.0201416,0.0326416,
5622,0.0439453,0.0326172,
5624,-0.065918,0.0332031,
5626,-0.0878906,0.0334045,
5628,-0.0170898,0.0333191,
5630,-0.0512695,0.0334961,
5632,-0.0341797,0.0338196,
5634,-0.00671387,0.0336121,
5636,0.0750732,0.0341614,
5638,0.0012207,0.0338928,
5640,-0.0134277,0.0337585,
5642,0.0830078,0.0343262,
5644,-0.0183105,0.034375,
5646,0.043335,0.0341064,
5648,-0.0408936,0.0345093,
5650,-0.0634766,0.0350708,
5652,-0.0372314,0.0353699,
5654,0.0396729,0.0349487,
5656,-0.0231934,0.0349304,
5658,-0.0579834,0.0352661,
5660,-0.0250244,0.0350281,
5662,0.158081,0.0363953,
5664,-0.0793457,0.036792,
5666,0.0457764,0.0370789,
5668,0.0195313,0.0372742,
5670,0.0292969,0.0374756,
5672,-0.0823975,0.038269,
5674,0.00366211,0.0380188,
5676,0.00366211,0.0375793,
5678,-0.0439453,0.0378418,
5680,-0.0231934,0.0375671,
5682,0.0134277,0.0374878,
5684,0.0592041,0.0367493,
5686,0.0848389,0.0372314,
5688,-0.0585938,0.037677,
5690,0.00244141,0.0375427,
5692,0.0219727,0.037262,
5694,0.00976563,0.0369995,
5696,0.0238037,0.0366394,
5698,0.0219727,0.0362854,
5700,-0.142212,0.0376038,
5702,-0.0415039,0.0371399,
5704,-0.0195313,0.0370483,
5706,0.128784,0.0383057,
5708,0.00732422,0.0381958,
5710,-0.022583,0.0377747,
5712,0.0115967,0.0375793,
5714,0.116577,0.0383667,
5716,0.0714111,0.0390625,
5718,-0.0183105,0.0388855,
5720,-0.00793457,0.0384644,
5722,-0.03479,0.0384277,
5724,0.00671387,0.0384766,
5726,-0.0250244,0.0382507,
5728,-0.127563,0.0394958,
5730,-0.0335693,0.0397278,
5732,-0.00427246,0.0396729,
5734,-0.0634766,0.040094,
5736,0.0396729,0.0400024,
5738,-0.055542,0.040387,
5740,0.00610352,0.0402771,
5742,0.0292969,0.040509,
5744,-0.020752,0.0401062,
5746,0.022583,0.0394287,
5748,-0.00732422,0.038916,
5750,-0.0488281,0.0387207,
5752,0.0305176,0.0389221,
5754,-0.0366211,0.038739,
5756,0.0177002,0.0386414,
5758,0.022583,0.0381592,
5760,0.0311279,0.0384521,
5762,0.0579834,0.0385132,
5764,0.00427246,0.0381714,
5766,-0.0408936,0.0383911,
5768,0.0646973,0.0387512,
5770,0.0427246,0.0385803,
5772,0.0177002,0.0385498,
5774,-0.0244141,0.0386841,
5776,-0.055542,0.0389648,
5778,-0.0524902,0.0394531,
5780,0.0866699,0.0398315,
5782,-0.0512695,0.0402527,
5784,-0.0244141,0.0403748,
5786,0.0378418,0.0407288,
5788,-0.0146484,0.0399109,
5790,-0.0177002,0.0393616,
5792,0.0250244,0.0390808,
5794,0.00732422,0.039032,
5796,-0.0170898,0.0391479,
5798,-0.00732422,0.0390991,
5800,-0.0146484,0.0390076,
5802,0,0.0385315,
5804,-0.00427246,0.0382568,
5806,0.00976563,0.0383362,
5808,-0.00183105,0.0380798,
5810,-0.0280762,0.0380676,
5812,0.0311279,0.0374939,
5814,0.0244141,0.0376648,
5816,0,0.0370789,
5818,0.0128174,0.0366272,
5820,-0.043335,0.0368591,
5822,0.0445557,0.0368652,
5824,0.0201416,0.0364075,
5826,-0.00915527,0.0356201,
5828,-0.0292969,0.0357422,
5830,0.0134277,0.0353638,
5832,-0.000610352,0.0350281,
5834,0.00183105,0.0349792,
5836,0.010376,0.0343323,
5838,-0.00732422,0.0343933,
5840,0.0439453,0.0346985,
5842,-0.00305176,0.0338989,
5844,-0.0140381,0.0338562,
5846,-0.0109863,0.0335327,
5848,0.00366211,0.0331604,
5850,-0.0128174,0.0326538,
5852,0.0323486,0.032605,
5854,-0.0152588,0.0323608,
5856,-0.00366211,0.0321655,
5858,0.0268555,0.0318542,
5860,0.00976563,0.0317017,
5862,0.00366211,0.0301575,
5864,0.0421143,0.0297852,
5866,0.00671387,0.0293945,
5868,-0.0372314,0.0295715,
5870,0.0189209,0.0294678,
5872,0.00671387,0.0287109,
5874,-0.00305176,0.0287048,
5876,-0.0408936,0.0290771,
5878,-0.00793457,0.028717,
5880,0.0183105,0.0286682,
5882,0.00488281,0.0285828,
5884,-0.022583,0.0282166,
5886,0.00488281,0.027417,
5888,0.00549316,0.026886,
5890,0.0262451,0.027124,
5892,0.00427246,0.026947,
5894,-0.00671387,0.0269165,
5896,0.0396729,0.0270752,
5898,0.0134277,0.0269897,
5900,0.0164795,0.0257324,
5902,-0.00427246,0.0253601,
5904,0.0189209,0.025354,
5906,0.0494385,0.0245605,
5908,0.0012207,0.0244995,
5910,0.0109863,0.0243835,
5912,0.0201416,0.024469,
5914,0.0268555,0.0235718,
5916,-0.00183105,0.022876,
5918,0.0463867,0.0231567,
5920,-0.0177002,0.0232544,
5922,-0.00732422,0.0229797,
5924,0.00793457,0.0229919,
5926,-0.00427246,0.0227844,
5928,-0.00305176,0.0215393,
5930,-0.00976563,0.0213013,
5932,-0.0256348,0.0215149,
5934,-0.000610352,0.0208862,
5936,0.0183105,0.0206726,
5938,-0.0372314,0.0204895,
5940,0.00183105,0.0204468,
5942,0.00793457,0.0202332,
5944,-0.0256348,0.020282,
5946,0.0305176,0.0203613,
5948,-0.00305176,0.0203186,
5950,0.0244141,0.0200745,
5952,-0.022583,0.0199951,
5954,-0.00183105,0.0196472,
5956,0,0.0194702,
5958,0.012207,0.0193665,
5960,-0.00610352,0.0191162,
5962,-0.00793457,0.0186157,
5964,-0.00427246,0.0186157,
5966,0.00915527,0.0182983,
5968,0.0231934,0.0178833,
5970,-0.0158691,0.0176147,
5972,0.0286865,0.0177246,
5974,0.0305176,0.0177856,
5976,0.000610352,0.0172363,
5978,0.00305176,0.0167419,
5980,-0.012207,0.0159973,
5982,-0.00732422,0.0155579,
5984,-0.00427246,0.0153564,
5986,-0.00183105,0.0149963,
5988,-0.0140381,0.0149902,
5990,-0.0189209,0.0150024,
5992,-0.0238037,0.0149902,
5994,0.00915527,0.0150085,
5996,0.0280762,0.0151184,
5998,-0.00671387,0.0151123,
6000,-0.000610352,0.0149719,
6002,0.00305176,0.0150024,
6004,0.0012207,0.0149719,
6006,-0.00244141,0.0148987,
6008,0.0128174,0.0150085,
6010,-0.0518799,0.0152466,
6012,-0.00976563,0.015033,
6014,-0.0305176,0.015094,
6016,-0.0390625,0.0154846,
6018,0.00976563,0.0154541,
6020,-0.0360107,0.0153809,
6022,-0.00549316,0.0149902,
6024,0.0238037,0.0150269,
6026,-0.0378418,0.0153137,
6028,0.00244141,0.0150452,
6030,0.00793457,0.0149902,
6032,0.0140381,0.0151245,
6034,0.0158691,0.0152649,
6036,0.0128174,0.0152893,
6038,-0.0317383,0.0155334,
6040,0.0134277,0.0152283,
6042,-0.0152588,0.0153503,
6044,-0.0140381,0.0153503,
6046,0.010376,0.0153442,
6048,-0.0170898,0.0154785,
6050,-0.0299072,0.0156494,
6052,0.00305176,0.0153564,
6054,0.0146484,0.0153503,
6056,-0.0457764,0.0157715,
6058,0.0445557,0.0159485,
6060,-0.00976563,0.0159485,
6062,0.00183105,0.0159302,
6064,0.00732422,0.0155823,
6066,-0.0354004,0.0158691,
6068,0.00732422,0.0155701,
6070,-0.010376,0.0154846,
6072,-0.012207,0.0155396,
6074,0.00549316,0.015564,
6076,-0.0189209,0.0153442,
6078,-0.0146484,0.0154114,
6080,-0.0109863,0.0153381,
6082,-0.0115967,0.0154053,
6084,-0.0360107,0.0155396,
6086,0.0152588,0.0156433,
6088,-0.00427246,0.0156311,
6090,-0.0170898,0.0155396,
6092,-0.00427246,0.0155396,
6094,-0.0183105,0.0156555,
6096,0.0177002,0.0154358,
6098,0.0109863,0.0154114,
6100,-0.0170898,0.0154175,
6102,0.0152588,0.0155273,
6104,-0.0109863,0.015448,
6106,0.0140381,0.015094,
6108,0.010376,0.0151855,
6110,-0.0109863,0.0151855,
6112,0.020752,0.0151917,
6114,-0.00915527,0.0150146,
6116,-0.0012207,0.0150085,
6118,-0.00305176,0.0145752,
6120,0.00305176,0.0144287,
6122,-0.00305176,0.014386,
6124,0.00671387,0.0143738,
6126,-0.0213623,0.0145447,
6128,-0.00610352,0.0145752,
6130,0.020752,0.0146851,
6132,0.00427246,0.0144714,
6134,0.00305176,0.0144958,
6136,0.0231934,0.0145447,
6138,-0.0311279,0.0144836,
6140,0.0140381,0.0146057,
6142,0.0109863,0.0146362,
6144,-0.00488281,0.0144287,
6146,0.0146484,0.01427,
6148,-0.0128174,0.0143677,
6150,0.00366211,0.0141602,
6152,0.0128174,0.0140625,
6154,-0.0268555,0.0143127,
6156,0.0476074,0.0147888,
6158,0.00610352,0.0147278,
6160,-0.0427246,0.015094,
6162,0.00183105,0.015033,
6164,-0.0292969,0.0152832,
6166,-0.00976563,0.0152893,
6168,-0.0146484,0.0152039,
6170,-0.0317383,0.0153625,
6172,-0.0286865,0.0153625,
6174,-0.0146484,0.0152039,
6176,-0.0378418,0.0155762,
6178,0.0195313,0.015741,
6180,0.00488281,0.0156677,
6182,-0.00488281,0.0156433,
6184,0.00183105,0.0156189,
6186,-0.00671387,0.0156677,
6188,-0.00610352,0.0155884,
6190,0.0274658,0.0156738,
6192,0.0189209,0.015625,
6194,-0.0286865,0.0158203,
6196,0.0170898,0.0157104,
6198,0.00183105,0.0156616,
6200,-0.0152588,0.0158081,
6202,-0.0128174,0.0159058,
6204,0.012207,0.0160156,
6206,0.00183105,0.0160095,
6208,-0.0213623,0.016095,
6210,-0.0305176,0.0158813,
6212,0.0146484,0.0159302,
6214,0.0012207,0.0156372,
6216,-0.0128174,0.0153748,
6218,-0.00427246,0.0153198,
6220,-0.00976563,0.0150574,
6222,-0.0012207,0.0150146,
6224,0.010376,0.0148804,
6226,-0.0164795,0.0146667,
6228,0.00610352,0.0147034,
6230,0.0250244,0.0148743,
6232,-0.0164795,0.0148987,
6234,-0.00427246,0.0147827,
6236,0.0238037,0.0148926,
6238,-0.0146484,0.0147217,
6240,-0.00427246,0.0146301,
6242,0.0012207,0.0144897,
6244,-0.0177002,0.0145264,
6246,0.0134277,0.0145569,
6248,-0.010376,0.0144897,
6250,-0.0140381,0.0143311,
6252,-0.00793457,0.0143799,
6254,-0.00183105,0.0142517,
6256,-0.00427246,0.0138367,
6258,0.010376,0.0134949,
6260,-0.0311279,0.0137085,
6262,-0.00854492,0.0137756,
6264,-0.0012207,0.0137146,
6266,-0.00671387,0.0134277,
6268,-0.00610352,0.0134155,
6270,-0.00732422,0.013385,
6272,-0.00854492,0.0133484,
6274,0.0244141,0.0135376,
6276,-0.0360107,0.0137085,
6278,-0.000610352,0.0135681,
6280,0.00732422,0.0135315,
6282,-0.0256348,0.0136719,
6284,0.0244141,0.0135559,
6286,-0.0109863,0.0135132,
6288,-0.0335693,0.0138062,
6290,0.0115967,0.0137512,
6292,-0.00427246,0.0137512,
6294,-0.00915527,0.0136597,
6296,0.00854492,0.0135681,
6298,0.00183105,0.0134766,
6300,-0.00305176,0.0133362,
6302,0.00305176,0.0132141,
6304,0.00305176,0.0131348,
6306,0.00915527,0.0130859,
6308,0.00976563,0.0130798,
6310,-0.0274658,0.0132446,
6312,0.0250244,0.0132874,
6314,0.00488281,0.0132446,
6316,-0.0140381,0.0133728,
6318,-0.00732422,0.0134155,
6320,-0.0140381,0.0135254,
6322,0.0128174,0.013623,
6324,0.00976563,0.0136536,
6326,-0.0177002,0.0136169,
6328,0.0128174,0.0136841,
6330,0.00793457,0.0135559,
6332,0.00915527,0.0136047,
6334,0.0177002,0.0137512,
6336,-0.0170898,0.0136902,
6338,-0.0128174,0.0135071,
6340,0.0213623,0.0135803,
6342,-0.0134277,0.0136047,
6344,-0.00244141,0.0135803,
6346,-0.00244141,0.0134583,
6348,-0.0231934,0.013562,
6350,-0.00915527,0.0136169,
6352,0.0219727,0.0137085,
6354,-0.0268555,0.0137085,
6356,-0.00793457,0.0133118,
6358,0.00915527,0.0133423,
6360,-0.0195313,0.0131104,
6362,-0.00671387,0.0131592,
6364,-0.00854492,0.0129517,
6366,-0.0177002,0.013031,
6368,0.00854492,0.01297,
6370,-0.00915527,0.0127441,
6372,0.00366211,0.0124939,
6374,0.0231934,0.0125793,
6376,-0.0262451,0.0124634,
6378,0.00305176,0.0122986,
6380,0.0238037,0.0124878,
6382,-0.00610352,0.0125,
6384,0.0201416,0.0126831,
6386,-0.0152588,0.0127686,
6388,-0.010376,0.0128113,
6390,0.00976563,0.0126343,
6392,-0.00610352,0.0125061,
6394,-0.00915527,0.0123108,
6396,0.0115967,0.0122559,
6398,0,0.0122375,
6400,-0.00793457,0.0121643,
6402,0.0109863,0.012146,
6404,0,0.0120239,
6406,0.0177002,0.0121826,
6408,0.0213623,0.0121826,
6410,-0.0274658,0.0121521,
6412,0.0146484,0.0121521,
6414,0.00305176,0.0121704,
6416,-0.0195313,0.0122375,
6418,0.0292969,0.0124878,
6420,-0.0109863,0.0125,
6422,0.0268555,0.0127563,
6424,0,0.0126526,
6426,-0.00732422,0.012561,
6428,0.0140381,0.0126404,
6430,0.0201416,0.0125916,
6432,-0.0286865,0.0127136,
6434,0.00732422,0.0127441,
6436,-0.0152588,0.0126587,
6438,-0.0158691,0.0126709,
6440,0.0012207,0.0126404,
6442,-0.0146484,0.0127747,
6444,-0.012207,0.0127197,
6446,0.0128174,0.0127136,
6448,0.00366211,0.0126465,
6450,-0.00183105,0.0125244,
6452,0.0012207,0.0124573,
6454,0.00183105,0.0124573,
6456,0.012207,0.0125366,
6458,0.00793457,0.0125122,
6460,-0.0238037,0.012439,
6462,0.0164795,0.0125183,
6464,0.00366211,0.0125427,
6466,-0.0170898,0.0126465,
6468,0.020752,0.012793,
6470,-0.00793457,0.0127991,
6472,0.00732422,0.0127869,
6474,0.00976563,0.0126404,
6476,-0.010376,0.012384,
6478,0.00488281,0.0124268,
6480,0.00915527,0.0124451,
6482,-0.00366211,0.0122253,
6484,0.0012207,0.0119934,
6486,-0.00305176,0.0119141,
6488,-0.00732422,0.0116516,
6490,0.0195313,0.011731,
6492,-0.00793457,0.0117676,
6494,0.0201416,0.0118774,
6496,0.022583,0.0120178,
6498,0.0128174,0.0121277,
6500,-0.032959,0.0124268,
6502,0.0317383,0.0127136,
6504,-0.0177002,0.0128601,
6506,-0.00549316,0.0128235,
6508,-0.010376,0.0128296,
6510,-0.0335693,0.0128906,
6512,-0.00671387,0.0127075,
6514,-0.0109863,0.0127686,
6516,-0.0195313,0.0128235,
6518,0.0109863,0.0128601,
6520,-0.0128174,0.0128479,
6522,0.0140381,0.0128601,
6524,0.0140381,0.0129028,
6526,-0.0164795,0.0128906,
6528,0.00793457,0.0128418,
6530,0.0140381,0.0129028,
6532,0.0012207,0.0128235,
6534,-0.00305176,0.012677,
6536,0.00366211,0.0125427,
6538,-0.00244141,0.012439,
6540,0.0140381,0.0123657,
6542,-0.00488281,0.0122803,
6544,-0.00244141,0.0122803,
6546,0.0268555,0.0125244,
6548,0.00244141,0.0123169,
6550,-0.00549316,0.0122803,
6552,0.0146484,0.012207,
6554,-0.00366211,0.0119751,
6556,0.00366211,0.0119324,
6558,0.0134277,0.0119751,
6560,-0.0201416,0.0119812,
6562,0.0183105,0.0120972,
6564,0.0238037,0.0122498,
6566,-0.0360107,0.0124329,
6568,0.00305176,0.0123779,
6570,-0.0012207,0.0122986,
6572,-0.0012207,0.0122742,
6574,0.00610352,0.0121033,
6576,-0.0354004,0.0121948,
6578,0.012207,0.0122864,
6580,-0.0170898,0.0122192,
6582,-0.00183105,0.0121765,
6584,-0.000610352,0.0119812,
6586,0.00854492,0.0119141,
6588,-0.00976563,0.011908,
6590,0.010376,0.0119141,
6592,-0.0238037,0.0120911,
6594,0.00244141,0.0120239,
6596,0.0195313,0.0121033,
6598,-0.0305176,0.0124084,
6600,-0.00671387,0.0123962,
6602,0.0134277,0.0124207,
6604,-0.0189209,0.0126099,
6606,-0.010376,0.0125366,
6608,0.00854492,0.0124084,
6610,-0.0256348,0.0123901,
6612,0.022583,0.0124695,
6614,-0.0152588,0.0125916,
6616,-0.0134277,0.0125305,
6618,0.00366211,0.0122742,
6620,-0.0128174,0.0122925,
6622,0.0134277,0.0121582,
6624,-0.0012207,0.0121704,
6626,-0.0262451,0.0123596,
6628,0.00427246,0.012262,
6630,0.00183105,0.0120789,
6632,-0.012207,0.0119141,
6634,-0.00488281,0.0118896,
6636,-0.00671387,0.0118042,
6638,-0.00549316,0.0117004,
6640,0.0140381,0.0118286,
6642,-0.00366211,0.0117188,
6644,-0.00488281,0.0116455,
6646,0.012207,0.0116394,
6648,0.00671387,0.0116699,
6650,-0.00183105,0.0116699,
6652,0.00976563,0.0117554,
6654,-0.010376,0.0118408,
6656,-0.00427246,0.0117615,
6658,0.0152588,0.0118347,
6660,-0.0183105,0.0117798,
6662,0.0134277,0.0117493,
6664,0.00854492,0.0117981,
6666,0.000610352,0.0116333,
6668,0.020752,0.0116333,
6670,-0.00610352,0.011615,
6672,0.0158691,0.0117004,
6674,0.0372314,0.0119751,
6676,-0.0134277,0.0120056,
6678,0.0134277,0.0120911,
6680,0.010376,0.0121033,
6682,-0.0140381,0.012207,
6684,0.0109863,0.0123047,
6686,-0.00488281,0.012323,
6688,-0.00183105,0.0122681,
6690,0.0115967,0.0121887,
6692,-0.00427246,0.0121521,
6694,-0.012207,0.0120728,
6696,0.0177002,0.0120239,
6698,-0.00183105,0.0119141,
6700,-0.00244141,0.0116089,
6702,0.00671387,0.0113586,
6704,-0.010376,0.0112854,
6706,0.00488281,0.0112793,
6708,0.00793457,0.0112549,
6710,-0.0128174,0.0110474,
6712,0.0183105,0.0111633,
6714,0.00549316,0.0111084,
6716,-0.00610352,0.0109741,
6718,-0.000610352,0.0108704,
6720,-0.00854492,0.0108276,
6722,0.00732422,0.0107605,
6724,0.00671387,0.0106873,
6726,-0.0317383,0.0108398,
6728,0.00488281,0.0108093,
6730,0.0012207,0.0106812,
6732,-0.00732422,0.0107422,
6734,0.0115967,0.0108276,
6736,0.0183105,0.0109741,
6738,-0.0152588,0.0111023,
6740,0.0170898,0.0111328,
6742,-0.0238037,0.011322,
6744,0.00671387,0.0113647,
6746,0.00732422,0.0111694,
6748,-0.00793457,0.0112244,
6750,-0.0189209,0.0113586,
6752,0.000610352,0.0112183,
6754,-0.00915527,0.0112732,
6756,0.00488281,0.0112854,
6758,0.0128174,0.0112793,
6760,-0.020752,0.0112854,
6762,0.00366211,0.0111389,
6764,0.00244141,0.0109253,
6766,-0.00854492,0.0106506,
6768,0.0109863,0.01073,
6770,-0.0170898,0.0108887,
6772,0.00183105,0.0108948,
6774,0.010376,0.0109375,
6776,-0.0195313,0.0107788,
6778,0.0012207,0.0106689,
6780,0.00183105,0.0105164,
6782,-0.00549316,0.010553,
6784,0.00976563,0.0106445,
6786,0.00244141,0.0105835,
6788,-0.0164795,0.0106506,
6790,0.0213623,0.0107605,
6792,-0.0012207,0.0105347,
6794,0.000610352,0.0105164,
6796,0.00915527,0.0104126,
6798,0.00183105,0.0101257,
6800,-0.00610352,0.0101196,
6802,0.00427246,0.0100281,
6804,-0.00915527,0.00993042,
6806,0.00366211,0.00986328,
6808,0.00427246,0.00982056,
6810,-0.0244141,0.00980835,
6812,0.0183105,0.00976563,
6814,0.00976563,0.00971069,
6816,-0.00915527,0.00966797,
6818,0.0213623,0.00984497,
6820,0.00915527,0.00980835,
6822,0.000610352,0.00968018,
6824,0.0231934,0.0098999,
6826,0.00305176,0.00966797,
6828,-0.00366211,0.00966187,
6830,0,0.00964355,
6832,-0.0213623,0.00973511,
6834,-0.000610352,0.00969238,
6836,-0.010376,0.009729,
6838,-0.0189209,0.00986328,
6840,-0.00183105,0.00974121,
6842,-0.0134277,0.00983887,
6844,-0.00610352,0.00985107,
6846,0.0134277,0.00986328,
6848,0.00732422,0.00986938,
6850,0.00976563,0.00994873,
6852,0.0158691,0.0100098,
6854,-0.0256348,0.0101624,
6856,0.0231934,0.0103516,
6858,0.00671387,0.0102661,
6860,-0.0238037,0.010321,
6862,0.00854492,0.0102722,
6864,-0.0115967,0.0103027,
6866,-0.00610352,0.0103577,
6868,0.0115967,0.0102661,
6870,-0.00854492,0.0102905,
6872,0.0109863,0.0102417,
6874,0.0109863,0.00997925,
6876,-0.0109863,0.00995483,
6878,0.012207,0.00994263,
6880,-0.00549316,0.0098938,
6882,-0.00732422,0.00982666,
6884,0.00732422,0.00979004,
6886,-0.00854492,0.00982666,
6888,-0.00610352,0.00986938,
6890,0.00976563,0.00985107,
6892,-0.00793457,0.0098877,
6894,-0.00427246,0.00980835,
6896,0.0177002,0.00980835,
6898,0.0140381,0.00993042,
6900,0.00732422,0.00997925,
6902,0.00488281,0.00996094,
6904,-0.00427246,0.0098999,
6906,0.00732422,0.00992432,
6908,0.00915527,0.00993652,
6910,-0.00366211,0.00984497,
6912,0.00305176,0.00969238,
6914,0.000610352,0.00964355,
6916,-0.0201416,0.00978394,
6918,0.00183105,0.00979614,
6920,-0.00183105,0.009729,
6922,0.00732422,0.009729,
6924,0.00854492,0.00974731,
6926,-0.00549316,0.00948486,
6928,0.012207,0.00955811,
6930,-0.00610352,0.00960693,
6932,-0.00610352,0.00959473,
6934,0.0183105,0.00966187,
6936,0.00793457,0.00955811,
6938,-0.0109863,0.00951538,
6940,-0.00488281,0.00939331,
6942,-0.0115967,0.00927124,
6944,0.00244141,0.00922852,
6946,0.00427246,0.009198,
6948,-0.0134277,0.00925293,
6950,-0.0177002,0.00924072,
6952,-0.000610352,0.00924072,
6954,-0.0134277,0.00928345,
6956,0.00427246,0.00927734,
6958,0.00244141,0.00917358,
6960,-0.0158691,0.00912476,
6962,0.0152588,0.00924072,
6964,0.00366211,0.00925293,
6966,-0.0115967,0.00928345,
6968,0.0146484,0.00932007,
6970,-0.00976563,0.00924683,
6972,0.00610352,0.00928955,
6974,0.0134277,0.00932007,
6976,-0.0195313,0.00932007,
6978,0.00976563,0.00940552,
6980,0.00427246,0.00942993,
6982,-0.00915527,0.00946655,
6984,0.00305176,0.00939941,
6986,-0.000610352,0.0093811,
6988,-0.00305176,0.00924683,
6990,0.0115967,0.00914917,
6992,-0.0164795,0.00930176,
6994,0.00793457,0.009375,
6996,0.00488281,0.00933228,
6998,0.000610352,0.00932007,
7000,0.00610352,0.00932007,
7002,0.00488281,0.00932617,
7004,-0.00793457,0.00931396,
7006,0.0128174,0.00940552,
7008,0.00854492,0.00944824,
7010,-0.0146484,0.00935059,
7012,0.0183105,0.00935059,
7014,0,0.00925293,
7016,-0.00793457,0.00924072,
7018,0.00915527,0.00911865,
7020,0.00183105,0.00904541,
7022,0.0201416,0.00924072,
7024,0.00610352,0.00906982,
7026,-0.0274658,0.00931396,
7028,0.00610352,0.00933838,
7030,0.00183105,0.00935669,
7032,-0.0128174,0.00927124,
7034,-0.00610352,0.00932617,
7036,-0.0109863,0.00933228,
7038,-0.00610352,0.0092041,
7040,0.010376,0.00928955,
7042,-0.00488281,0.0092041,
7044,-0.00549316,0.009198,
7046,0.0170898,0.00923462,
7048,-0.00244141,0.00918579,
7050,-0.00671387,0.00915527,
7052,0.00915527,0.00908813,
7054,-0.0219727,0.00905151,
7056,-0.00244141,0.00884399,
7058,-0.0012207,0.00878906,
7060,-0.0238037,0.00878906,
7062,0.0238037,0.00894165,
7064,0.0012207,0.00883789,
7066,-0.010376,0.00888062,
7068,0.00915527,0.0088562,
7070,0.00793457,0.0088501,
7072,-0.00915527,0.00883179,
7074,0.03479,0.00906982,
7076,-0.0170898,0.00913086,
7078,-0.012207,0.00913086,
7080,0.00854492,0.00916138,
7082,-0.00183105,0.00910645,
7084,-0.0128174,0.00916138,
7086,-0.00610352,0.00913696,
7088,-0.00976563,0.00917358,
7090,0.00915527,0.00916748,
7092,-0.0158691,0.00924683,
7094,0.00488281,0.00925293,
7096,0.0231934,0.00930786,
7098,-0.0140381,0.00930786,
7100,0.0109863,0.00934448,
7102,0.0146484,0.00944214,
7104,-0.0256348,0.00965576,
7106,0.0134277,0.0097168,
7108,0.00671387,0.00969238,
7110,-0.0201416,0.00985718,
7112,0.00976563,0.00992432,
7114,-0.00488281,0.00996704,
7116,-0.0128174,0.0098938,
7118,0.00305176,0.00990601,
7120,0.00427246,0.00993042,
7122,0.00305176,0.0098877,
7124,0.0152588,0.00995483,
7126,-0.0177002,0.0100769,
7128,0.00976563,0.0100525,
7130,0.0012207,0.0100037,
7132,0.00366211,0.00997925,
7134,0.00183105,0.00981445,
7136,-0.00976563,0.00983276,
7138,0.00305176,0.00975342,
7140,0.00976563,0.00980225,
7142,-0.0134277,0.00982056,
7144,-0.00793457,0.00987549,
7146,0.00549316,0.0098877,
7148,-0.00549316,0.00980835,
7150,-0.0213623,0.00984497,
7152,0.00793457,0.00991821,
7154,-0.010376,0.0098877,
7156,-0.000610352,0.00985107,
7158,0.00244141,0.00985107,
7160,-0.0109863,0.00980225,
7162,0.0158691,0.00980835,
7164,0,0.00977173,
7166,-0.0128174,0.00978394,
7168,0.0109863,0.00974731,
7170,-0.0134277,0.00978394,
7172,0.00549316,0.00977783,
7174,0.0115967,0.00975952,
7176,-0.0195313,0.00975952,
7178,0.0134277,0.00979614,
7180,0.00427246,0.00979614,
7182,0.0274658,0.00997925,
7184,-0.0311279,0.01026,
7186,0.012207,0.010376,
7188,0.0183105,0.0105286,
7190,0.00976563,0.0105103,
7192,-0.0183105,0.0105286,
7194,-0.0170898,0.0106201,
7196,0.00793457,0.0106506,
7198,0.00244141,0.0106689,
7200,-0.0115967,0.0107239,
7202,-0.00305176,0.0107056,
7204,-0.00976563,0.0107239,
7206,0.00671387,0.0106628,
7208,0.000610352,0.0105835,
7210,-0.0158691,0.0105957,
7212,0.0158691,0.0105713,
7214,-0.000610352,0.0105774,
7216,-0.0115967,0.010614,
7218,0.0152588,0.010675,
7220,-0.010376,0.0107605,
7222,0.00793457,0.0106384,
7224,0.0213623,0.010791,
7226,-0.00915527,0.0106079,
7228,0.00488281,0.0105957,
7230,0.00671387,0.0106445,
7232,-0.00915527,0.0106079,
7234,0.0115967,0.0106628,
7236,-0.00610352,0.010614,
7238,-0.000610352,0.0105591,
7240,0.00305176,0.0104858,
7242,0,0.010437,
7244,0.00976563,0.0104797,
7246,-0.00976563,0.0104065,
7248,0.0195313,0.0105774,
7250,-0.00976563,0.0106079,
7252,-0.000610352,0.0105225,
7254,-0.00854492,0.0103882,
7256,0.00366211,0.0104004,
7258,-0.00732422,0.0104614,
7260,-0.0305176,0.0105286,
7262,0.0128174,0.0104187,
7264,0.00549316,0.0104614,
7266,-0.00671387,0.0104248,
7268,0.00610352,0.0103943,
7270,-0.00976563,0.0104126,
7272,0.0012207,0.0103333,
7274,0.0189209,0.0101746,
7276,-0.0177002,0.0101807,
7278,0.00427246,0.0101013,
7280,0.000610352,0.010022,
7282,-0.0115967,0.0101196,
7284,0.00610352,0.0100525,
7286,0.00183105,0.0100098,
7288,0.00366211,0.00994873,
7290,0.0244141,0.0101013,
7292,-0.0164795,0.0101074,
7294,0.00732422,0.0101318,
7296,0.0140381,0.0100403,
7298,-0.00610352,0.00996094,
7300,-0.00671387,0.00991821,
7302,0.00610352,0.00983276,
7304,-0.0152588,0.009729,
7306,-0.000610352,0.00960083,
7308,-0.0012207,0.0095459,
7310,-0.0152588,0.00949707,
7312,0.0183105,0.00958252,
7314,-0.00366211,0.00957031,
7316,-0.0134277,0.00957642,
7318,0.0201416,0.00974731,
7320,-0.010376,0.00980835,
7322,0.0183105,0.00996094,
7324,0.00244141,0.00983276,
7326,-0.0219727,0.00987549,
7328,0.00915527,0.00986938,
7330,0.0115967,0.00997314,
7332,-0.0109863,0.0100464,
7334,0.010376,0.0101318,
7336,0.00183105,0.0100525,
7338,-0.0128174,0.0101501,
7340,0.012207,0.0101746,
7342,-0.00854492,0.0101257,
7344,-0.00366211,0.010083,
7346,0.00183105,0.0100464,
7348,-0.00549316,0.0100464,
7350,-0.00732422,0.00990601,
7352,0.0012207,0.00983887,
7354,-0.012207,0.00985718,
7356,0.00671387,0.00991821,
7358,-0.0012207,0.00990601,
7360,-0.0177002,0.00997314,
7362,0.020752,0.010022,
7364,0.00488281,0.0100708,
7366,-0.0128174,0.0100708,
7368,0.00854492,0.0100464,
7370,-0.0115967,0.0100281,
7372,0.0152588,0.0101257,
7374,0.0134277,0.010144,
7376,-0.0305176,0.0102539,
7378,0.0134277,0.0102539,
7380,0.000610352,0.0102173,
7382,-0.0115967,0.0100586,
7384,0.000610352,0.00975342,
7386,-0.00610352,0.00969238,
7388,0.000610352,0.00951538,
7390,0.00915527,0.00950928,
7392,-0.0109863,0.00943604,
7394,0.0012207,0.00927734,
7396,0.0109863,0.00930786,
7398,0.00427246,0.00932617,
7400,-0.00549316,0.00926514,
7402,0.00427246,0.00927734,
7404,0.00244141,0.0092041,
7406,0.00671387,0.0092041,
7408,-0.00488281,0.00924683,
7410,-0.00305176,0.00911865,
7412,0.0286865,0.00924683,
7414,0.00488281,0.00928955,
7416,-0.012207,0.00929565,
7418,0.0384521,0.00952759,
7420,-0.0360107,0.00978394,
7422,0.00671387,0.00977173,
7424,0.0146484,0.00970459,
7426,-0.0335693,0.00994873,
7428,-0.00549316,0.00995483,
7430,-0.00915527,0.00997925,
7432,-0.0195313,0.010083,
7434,-0.0158691,0.0101257,
7436,-0.00610352,0.0101257,
7438,0.00305176,0.0101501,
7440,0.020752,0.0103271,
7442,-0.00915527,0.0104187,
7444,-0.0146484,0.0104675,
7446,0.012207,0.0104919,
7448,0.00854492,0.0103821,
7450,0.0012207,0.0102966,
7452,0.00549316,0.0103455,
7454,-0.00854492,0.0103455,
7456,0.00427246,0.0103516,
7458,0.012207,0.0104004,
7460,-0.0183105,0.0102783,
7462,0.0152588,0.0103027,
7464,0.00183105,0.0102661,
7466,-0.0164795,0.0103638,
7468,0.00366211,0.0103394,
7470,-0.00732422,0.0103149,
7472,0.00854492,0.0103882,
7474,0.00488281,0.0102478,
7476,-0.0152588,0.0102234,
7478,0.00793457,0.01026,
7480,0.00976563,0.0103516,
7482,-0.00732422,0.0103088,
7484,0.00671387,0.0103149,
7486,-0.00549316,0.0103516,
7488,0.00366211,0.0103516,
7490,0.00671387,0.0101746,
7492,-0.00793457,0.0100891,
7494,0.00244141,0.0100403,
7496,0.0164795,0.0100647,
7498,-0.00305176,0.0100342,
7500,0.00793457,0.0100464,
7502,0.012207,0.0101074,
7504,-0.00610352,0.0100159,
7506,0.0158691,0.0101685,
7508,0.00183105,0.0101746,
7510,-0.00976563,0.0101196,
7512,0.0158691,0.0100952,
7514,-0.00366211,0.0100952,
7516,0.00610352,0.010022,
7518,0.00488281,0.00986938,
7520,-0.00244141,0.00979004,
7522,-0.00366211,0.00964355,
7524,0.012207,0.00974121,
7526,-0.0213623,0.00973511,
7528,0.012207,0.00976563,
7530,-0.00732422,0.0097229,
7532,-0.012207,0.00973511,
7534,0.00671387,0.00969849,
7536,-0.0170898,0.00985107,
7538,0,0.0097229,
7540,0.012207,0.0097229,
7542,-0.0134277,0.00977173,
7544,0.00305176,0.00976563,
7546,0.00610352,0.00980835,
7548,0.00305176,0.00978394,
7550,0.0012207,0.0097229,
7552,0.00305176,0.00974121,
7554,-0.00427246,0.00966187,
7556,0.000610352,0.00960083,
7558,0.00305176,0.00961914,
7560,-0.0164795,0.00960693,
7562,0.0128174,0.00952759,
7564,-0.00244141,0.00950317,
7566,-0.0115967,0.00949097,
7568,0.00854492,0.00949097,
7570,-0.00793457,0.00945435,
7572,0.00305176,0.00933228,
7574,0.0152588,0.00935059,
7576,-0.0183105,0.00922852,
7578,0.0158691,0.00925293,
7580,0.0158691,0.00940552,
7582,-0.0109863,0.00939941,
7584,0.00854492,0.00947876,
7586,0.00427246,0.00946045,
7588,0.010376,0.00955811,
7590,0.0158691,0.00962524,
7592,-0.0134277,0.00964966,
7594,-0.00305176,0.00966797,
7596,0.0134277,0.00969238,
7598,-0.00244141,0.00967407,
7600,-0.0012207,0.00963135,
7602,-0.00793457,0.00966797,
7604,-0.00854492,0.009729,
7606,0.00305176,0.00969238,
7608,-0.00854492,0.009729,
7610,-0.0183105,0.00988159,
7612,0.0115967,0.00971069,
7614,-0.000610352,0.00966797,
7616,-0.0128174,0.00967407,
7618,0.00915527,0.0093811,
7620,-0.00854492,0.00910645,
7622,0.00793457,0.00911865,
7624,0.0170898,0.00914307,
7626,-0.0231934,0.00903931,
7628,0.0238037,0.00922241,
7630,0.00244141,0.00915527,
7632,-0.0128174,0.00908813,
7634,0.0140381,0.00906982,
7636,-0.00793457,0.00908813,
7638,0.00305176,0.00908813,
7640,0.00976563,0.00897827,
7642,-0.022583,0.00911255,
7644,0.00366211,0.00900269,
7646,0.0128174,0.00900879,
7648,-0.00427246,0.00896606,
7650,-0.000610352,0.00895996,
7652,0.00305176,0.00893555,
7654,-0.00976563,0.00894775,
7656,0.00976563,0.00900269,
7658,-0.00305176,0.00891113,
7660,-0.010376,0.00883179,
7662,0.00549316,0.00873413,
7664,0,0.00871582,
7666,-0.010376,0.00865479,
7668,0.00488281,0.00866699,
7670,-0.00549316,0.00864868,
7672,0.0201416,0.00876465,
7674,0.00732422,0.00878906,
7676,-0.0335693,0.00897217,
7678,0.0238037,0.00913086,
7680,0.00488281,0.00908203,
7682,-0.0201416,0.00921021,
7684,0.00488281,0.00919189,
7686,-0.00915527,0.00922852,
7688,0.00854492,0.00927734,
7690,-0.000610352,0.00921631,
7692,-0.00549316,0.00919189,
7694,0.0134277,0.00930176,
7696,-0.0170898,0.00930786,
7698,0.00366211,0.00931396,
7700,0.00610352,0.00929565,
7702,0.00183105,0.00919189,
7704,-0.0189209,0.00932007,
7706,0,0.00916138,
7708,-0.00183105,0.00916138,
7710,-0.0146484,0.00921021,
7712,0.0128174,0.00917969,
7714,-0.0012207,0.00915527,
7716,-0.00915527,0.00918579,
7718,0.0170898,0.00930786,
7720,-0.0134277,0.00941772,
7722,0.010376,0.00948486,
7724,0.0128174,0.00949097,
7726,-0.0201416,0.00947876,
7728,0.0158691,0.00951538,
7730,0.00183105,0.00946045,
7732,-0.00610352,0.00939941,
7734,0.00549316,0.00938721,
7736,-0.00549316,0.00927124,
7738,0.0012207,0.00928345,
7740,0.0134277,0.00929565,
7742,-0.0146484,0.00930786,
7744,0.000610352,0.00928345,
7746,0.0158691,0.0093811,
7748,-0.00427246,0.00939331,
7750,-0.00183105,0.00939941,
7752,0.00488281,0.00941772,
7754,-0.00549316,0.00942993,
7756,0.012207,0.0095459,
7758,0.000610352,0.00952148,
7760,-0.00427246,0.00939941,
7762,0.012207,0.00939331,
7764,-0.0115967,0.00948486,
7766,-0.00305176,0.00939941,
7768,0.00976563,0.00941162,
7770,-0.0189209,0.00952148,
7772,0.00183105,0.00950928,
7774,-0.00183105,0.009375,
7776,-0.0372314,0.00956421,
7778,0.0134277,0.00953979,
7780,-0.00488281,0.00942993,
7782,-0.012207,0.00944214,
7784,-0.00183105,0.009375,
7786,-0.00610352,0.00939331,
7788,-0.00183105,0.00930786,
7790,0.00915527,0.00924072,
7792,-0.0146484,0.00925293,
7794,0.00305176,0.00925293,
7796,0.0109863,0.00922852,
7798,-0.00183105,0.00922241,
7800,0.000610352,0.00921631,
7802,0.00183105,0.00915527,
7804,-0.00366211,0.00910645,
7806,0.0134277,0.00921021,
7808,0.00305176,0.00915527,
7810,-0.010376,0.00907593,
7812,0.020752,0.00916748,
7814,0.0115967,0.00927734,
7816,-0.0219727,0.0093689,
7818,0.0140381,0.00941772,
7820,-0.00244141,0.00935669,
7822,0.00671387,0.00934448,
7824,0.0274658,0.00944824,
7826,-0.0311279,0.00952759,
7828,-0.00427246,0.00933228,
7830,0.0115967,0.00942383,
7832,-0.00305176,0.00932617,
7834,-0.00427246,0.00922852,
7836,-0.00549316,0.0092041,
7838,-0.00793457,0.00925293,
7840,0.00793457,0.00923462,
7842,-0.0177002,0.00918579,
7844,-0.0012207,0.00916138,
7846,0.00854492,0.00911865,
7848,0.00183105,0.00909424,
7850,0.0189209,0.00927734,
7852,0.00183105,0.00926514,
7854,-0.00854492,0.00925293,
7856,0.00427246,0.009198,
7858,-0.000610352,0.00917358,
7860,-0.00793457,0.00914917,
7862,0.00732422,0.00916748,
7864,-0.00915527,0.00925903,
7866,-0.0189209,0.00934448,
7868,0.00488281,0.00934448,
7870,-0.00549316,0.00934448,
7872,0.0128174,0.00927124,
7874,0.0201416,0.00939941,
7876,-0.0177002,0.00924072,
7878,0.0115967,0.00911865,
7880,0.00244141,0.00909424,
7882,-0.00549316,0.00894775,
7884,0.00305176,0.00892944,
7886,-0.0128174,0.00896606,
7888,-0.00366211,0.00891724,
7890,0.00732422,0.00898438,
7892,-0.0195313,0.00912476,
7894,-0.00244141,0.00901489,
7896,0.0012207,0.0088562,
7898,0,0.00881958,
7900,-0.0012207,0.00877075,
7902,-0.00366211,0.00878906,
7904,-0.0109863,0.00870972,
7906,0.00854492,0.00879517,
7908,-0.00366211,0.00881348,
7910,-0.00976563,0.00876465,
7912,0.0183105,0.00881958,
7914,0.0012207,0.00881958,
7916,-0.00793457,0.00880737,
7918,0.0109863,0.00874634,
7920,-0.00915527,0.00870361,
7922,0.00854492,0.0086853,
7924,0.0128174,0.0086853,
7926,-0.0183105,0.00866699,
7928,0.0195313,0.00870361,
7930,0.00366211,0.00872192,
7932,-0.00854492,0.00874634,
7934,0.00671387,0.00875854,
7936,0,0.00870361,
7938,0.00488281,0.00874023,
7940,0.0158691,0.00876465,
7942,-0.0177002,0.00879517,
7944,-0.00183105,0.00880737,
7946,0.00427246,0.00869141,
7948,-0.0012207,0.00866089,
7950,-0.0012207,0.00865479,
7952,0.00427246,0.00864868,
7954,-0.00671387,0.00866089,
7956,0.0128174,0.00866699,
7958,-0.0115967,0.00877686,
7960,-0.0134277,0.00886841,
7962,0.0183105,0.00892944,
7964,0.00305176,0.00884399,
7966,-0.0152588,0.00896606,
7968,0.00732422,0.00894165,
7970,-0.0140381,0.00889282,
7972,0.00915527,0.00896606,
7974,0.0109863,0.00905762,
7976,-0.0177002,0.0088623,
7978,0.0189209,0.00891724,
7980,0.00732422,0.00894165,
7982,-0.00366211,0.0088562,
7984,0.012207,0.00895996,
7986,-0.00488281,0.00894775,
7988,0.00976563,0.0090271,
7990,0.0146484,0.00908203,
7992,-0.0195313,0.00913086,
7994,0.00671387,0.00916748,
7996,0.0140381,0.009198,
7998,-0.00915527,0.00927124,
8000,-0.000610352,0.00927124,
8002,0.00915527,0.00934448,
8004,-0.00610352,0.0093689,
8006,0.00610352,0.00929565,
8008,-0.0012207,0.00927734,
8010,-0.00732422,0.00924683,
8012,0.0183105,0.00922241,
8014,-0.00305176,0.00913696,
8016,-0.0115967,0.0090332,
8018,0.0109863,0.00900269,
8020,-0.0128174,0.00910645,
8022,0.00732422,0.00911255,
8024,0.00976563,0.00893555,
8026,-0.0238037,0.0088623,
8028,0.012207,0.00894165,
8030,-0.00244141,0.0088501,
8032,-0.012207,0.00894165,
8034,0.00488281,0.00894775,
8036,-0.0164795,0.00905762,
8038,-0.00732422,0.00905151,
8040,0.0244141,0.00921631,
8042,-0.022583,0.00926514,
8044,-0.000610352,0.00925903,
8046,0.00793457,0.00925293,
8048,-0.00183105,0.00925293,
8050,0.0158691,0.00922241,
8052,-0.00305176,0.00923462,
8054,-0.00305176,0.00917969,
8056,0.00976563,0.00923462,
8058,-0.00366211,0.00926514,
8060,-0.012207,0.00930786,
8062,0.00549316,0.00928955,
8064,0.00305176,0.00922852,
8066,-0.0146484,0.00918579,
8068,0.00610352,0.009198,
8070,-0.0140381,0.00928345,
8072,0.00610352,0.00921631,
8074,0.0109863,0.00912476,
8076,-0.0354004,0.00930176,
8078,0.012207,0.00930786,
8080,-0.000610352,0.00928955,
8082,-0.0109863,0.00934448,
8084,0.00549316,0.0093689,
8086,-0.00671387,0.00930786,
8088,0.00244141,0.00929565,
8090,0.022583,0.00944824,
8092,-0.00854492,0.00933838,
8094,0.0012207,0.00932617,
8096,0.0201416,0.00951538,
8098,0.0012207,0.00952759,
8100,-0.00305176,0.0095459,
8102,0.010376,0.00961304,
8104,0.000610352,0.00950928,
8106,0.00976563,0.00952148,
8108,-0.00244141,0.00950928,
8110,-0.0128174,0.00953979,
8112,0.0134277,0.00949097,
8114,0.00793457,0.00955811,
8116,-0.0164795,0.00964355,
8118,0.00976563,0.00963135,
8120,-0.0140381,0.00968018,
8122,0.00671387,0.00966187,
8124,0.00976563,0.00963135,
8126,-0.0238037,0.00968628,
8128,0.0152588,0.00964355,
8130,0.010376,0.00971069,
8132,-0.0146484,0.00977173,
8134,0.00610352,0.00976563,
8136,0.000610352,0.00977173,
8138,0.00427246,0.00976563,
8140,0.0128174,0.00973511,
8142,-0.0115967,0.00967407,
8144,0.00671387,0.0097229,
8146,0.0146484,0.00982666,
8148,0.00244141,0.00983887,
8150,0.010376,0.00993042,
8152,0.0128174,0.0100159,
8154,-0.00854492,0.0100342,
8156,0.0201416,0.0101074,
8158,0.00244141,0.0100159,
8160,-0.00976563,0.00997925,
8162,0.0115967,0.00991211,
8164,0.00549316,0.00993652,
8166,-0.0152588,0.00993652,
8168,0.00671387,0.00993042,
8170,-0.0201416,0.00999146,
8172,0.00732422,0.00997314,
8174,0.0158691,0.010022,
8176,-0.0305176,0.0101501,
8178,-0.00183105,0.00997925,
8180,0,0.00990601,
8182,-0.0115967,0.00998535,
8184,0.012207,0.00998535,
8186,-0.00244141,0.00996094,
8188,-0.010376,0.00996704,
8190,0.0189209,0.0100098,
8192,-0.0152588,0.00996704,
8194,0.0164795,0.0100647,
8196,-0.00244141,0.00994873,
8198,-0.00549316,0.00991211,
8200,-0.00305176,0.00993652,
8202,-0.00366211,0.00988159,
8204,-0.0128174,0.00994873,
8206,-0.0012207,0.0098999,
8208,-0.012207,0.0100098,
8210,-0.0128174,0.0100647,
8212,0.010376,0.00998535,
8214,-0.00183105,0.00997314,
8216,-0.00671387,0.00992432,
8218,0.00854492,0.0098999,
8220,-0.00915527,0.00986328,
8222,0.00244141,0.00981445,
8224,0.0134277,0.00985107,
8226,-0.0244141,0.00985718,
8228,0.0164795,0.0098999,
8230,-0.00427246,0.00991821,
8232,-0.0140381,0.00993652,
8234,0.00427246,0.00993042,
8236,-0.00976563,0.00986328,
8238,0.0012207,0.00980225,
8240,0.0115967,0.00967407,
8242,-0.0177002,0.00962524,
8244,0.00183105,0.00963745,
8246,0.00793457,0.00963745,
8248,-0.00305176,0.00964966,
8250,0,0.00949097,
8252,0.00183105,0.00947876,
8254,-0.00183105,0.00946655,
8256,0.0177002,0.0095459,
8258,-0.0109863,0.00961914,
8260,-0.0201416,0.00969849,
8262,0.00793457,0.0097229,
8264,-0.00732422,0.00976563,
8266,-0.0170898,0.00979004,
8268,0,0.009729,
8270,-0.0256348,0.00984497,
8272,-0.0115967,0.0098999,
8274,0.00732422,0.00986328,
8276,-0.0262451,0.00977173,
8278,0.0140381,0.00979004,
8280,-0.000610352,0.00979004,
8282,-0.00976563,0.00977783,
8284,0.012207,0.00984497,
8286,-0.00244141,0.00980225,
8288,0.0109863,0.0098877,
8290,0.00854492,0.00974731,
8292,-0.0128174,0.00979004,
8294,0.0140381,0.00991821,
8296,0.00793457,0.00979614,
8298,-0.00244141,0.00980835,
8300,0,0.00977783,
8302,-0.0134277,0.00980835,
8304,-0.00671387,0.00986938,
8306,0.0109863,0.00988159,
8308,-0.00732422,0.00993042,
8310,-0.0164795,0.00996704,
8312,0.00305176,0.00986328,
8314,-0.00427246,0.00982666,
8316,0.00305176,0.00969238,
8318,0.00305176,0.00962524,
8320,-0.00732422,0.00955811,
8322,0.00793457,0.00957031,
8324,0.010376,0.00957642,
8326,-0.0164795,0.00950317,
8328,0.0164795,0.00951538,
8330,0.00488281,0.00946045,
8332,-0.00793457,0.00939331,
8334,0.012207,0.00945435,
8336,-0.00610352,0.00950928,
8338,0.00671387,0.00953369,
8340,0.0164795,0.00957031,
8342,-0.0195313,0.00964966,
8344,0.00427246,0.00962524,
8346,0.00488281,0.00952759,
8348,-0.00549316,0.00955811,
8350,-0.00732422,0.00952759,
8352,-0.00305176,0.00942993,
8354,-0.00366211,0.0093811,
8356,0.00305176,0.00921021,
8358,-0.0109863,0.00929565,
8360,-0.0115967,0.00931396,
8362,0.0146484,0.00934448,
8364,-0.00305176,0.00932007,
8366,-0.00671387,0.00923462,
8368,0.0134277,0.00930176,
8370,-0.00488281,0.00914917,
8372,0.00976563,0.00917358,
8374,0.0183105,0.009198,
8376,-0.0201416,0.00909424,
8378,0.0164795,0.00924072,
8380,0.00610352,0.00930176,
8382,-0.00854492,0.00927124,
8384,0.00915527,0.00924072,
8386,-0.00549316,0.00927124,
8388,0.00427246,0.00921021,
8390,0.010376,0.00912476,
8392,-0.0146484,0.00911865,
8394,0.0115967,0.00906982,
8396,0.00427246,0.00908813,
8398,-0.00549316,0.00908813,
8400,0.000610352,0.00906372,
8402,-0.00183105,0.00904541,
8404,-0.00549316,0.00897217,
8406,0.00793457,0.00903931,
8408,-0.00793457,0.00899658,
8410,-0.00488281,0.00891724,
8412,0.0140381,0.00895386,
8414,0,0.00893555,
8416,0.00183105,0.00888672,
8418,0.00915527,0.00889282,
8420,-0.00915527,0.00889282,
8422,0.00976563,0.00896606,
8424,0.00976563,0.00892944,
8426,-0.0183105,0.00886841,
8428,0.0195313,0.00889893,
8430,-0.00244141,0.00888062,
8432,-0.010376,0.00884399,
8434,0.0109863,0.00891113,
8436,-0.00671387,0.00888062,
8438,0.00976563,0.00896606,
8440,0.0128174,0.00897827,
8442,-0.022583,0.0090271,
8444,0.012207,0.00913086,
8446,0.00671387,0.00911865,
8448,-0.010376,0.00919189,
8450,0.00244141,0.00921631,
8452,0.00305176,0.00922852,
8454,-0.00183105,0.00922852,
8456,0.00427246,0.00909424,
8458,-0.00549316,0.00903931,
8460,-0.00671387,0.00890503,
8462,0.0115967,0.00894165,
8464,0.000610352,0.00887451,
8466,-0.00549316,0.00875854,
8468,0.00488281,0.00880737,
8470,-0.00976563,0.00864868,
8472,0.010376,0.00863647,
8474,0.010376,0.00866699,
8476,-0.0170898,0.00857544,
8478,0.0177002,0.00861206,
8480,0.00244141,0.00863037,
8482,-0.00854492,0.00861816,
8484,0.0115967,0.00861206,
8486,-0.00427246,0.00863037,
8488,0.0115967,0.00863647,
8490,0.00976563,0.00864868,
8492,-0.0219727,0.00874023,
8494,0.010376,0.00870361,
8496,0.00976563,0.00872192,
8498,0.00244141,0.00872192,
8500,0.00610352,0.00878296,
8502,0.000610352,0.00865479,
8504,-0.0128174,0.00871582,
8506,-0.0012207,0.00861816,
8508,-0.00488281,0.00859375,
8510,-0.012207,0.00855103,
8512,0.00244141,0.00854492,
8514,-0.0134277,0.00863647,
8516,-0.012207,0.00872803,
8518,0.000610352,0.00870361,
8520,-0.012207,0.00875244,
8522,0.00488281,0.00872192,
8524,0.00732422,0.00869141,
8526,-0.0177002,0.00870361,
8528,0.0195313,0.00873413,
8530,0.00488281,0.00873413,
8532,-0.00610352,0.00871582,
8534,0.00610352,0.00865479,
8536,-0.010376,0.00869751,
8538,0.00732422,0.00870361,
8540,0.00915527,0.00863037,
8542,-0.0213623,0.00864868,
8544,0.00427246,0.00864868,
8546,0.00244141,0.00862427,
