Sara-B-Musc-ABC-L01
Gráfico creado el:2026-06-09 18:48:57.261
Registro en:2026-06-09 18:49:39.611
2 mseg/muestras
2 canales
EMG
mV
EMG Integrado
mV-sec
milliSec,CH1,CH40,
,160882 samples,160882 samples,
0,0.00915527,9.15527E-05,
2,0.0653076,0.000744629,
4,-0.0909424,0.00165405,
6,0.0390625,0.00204468,
8,0.00610352,0.00210571,
10,-0.0598145,0.00270386,
12,0.0537109,0.00324097,
14,-0.055542,0.00379639,
16,0.0146484,0.00394287,
18,0.0299072,0.00424194,
20,-0.101318,0.00525513,
22,0.032959,0.00558472,
24,0.0177002,0.00576172,
26,-0.0372314,0.00613403,
28,0.00244141,0.00615845,
30,0.00366211,0.00619507,
32,-0.0274658,0.00646973,
34,0.0219727,0.00668945,
36,-0.0286865,0.00697632,
38,-0.0244141,0.00722046,
40,0.0415039,0.0076355,
42,-0.0390625,0.00802612,
44,-0.0543213,0.00856934,
46,0.0201416,0.00877075,
48,-0.0604248,0.009375,
50,0.0402832,0.00977783,
52,0.0262451,0.0100403,
54,-0.0933838,0.0109741,
56,0.055542,0.0115295,
58,0.0341797,0.0118713,
60,-0.0726318,0.0125977,
62,-0.057373,0.0131714,
64,-0.0280762,0.0134521,
66,0.0280762,0.0137329,
68,0.010376,0.0138367,
70,-0.126953,0.0151062,
72,0.0299072,0.0154053,
74,0.0311279,0.0157166,
76,-0.0616455,0.016333,
78,0.057373,0.0169067,
80,-0.0512695,0.0174194,
82,0.0231934,0.0176514,
84,0.0201416,0.0178528,
86,-0.045166,0.0183044,
88,-0.0311279,0.0186157,
90,0.0579834,0.0191956,
92,-0.0250244,0.0194458,
94,-0.067749,0.0201233,
96,0.0701904,0.0208252,
98,-0.0408936,0.0212341,
100,0.00854492,0.0213196,
102,0.020752,0.0215271,
104,-0.101929,0.0225464,
106,0.065918,0.0232056,
108,-0.00915527,0.0232971,
110,-0.0769043,0.0240662,
112,0.0811768,0.0248779,
114,-0.0646973,0.0255249,
116,-0.00366211,0.0255615,
118,0.0524902,0.0260864,
120,-0.0994873,0.0270813,
122,0.032959,0.0274109,
124,0.00671387,0.027478,
126,-0.0567627,0.0280457,
128,0.0311279,0.0283569,
130,0.00366211,0.0283936,
132,-0.0482178,0.0288757,
134,0.03479,0.0292236,
136,-0.0152588,0.0293762,
138,-0.0299072,0.0296753,
140,0.0561523,0.0302368,
142,-0.0378418,0.0306152,
144,-0.0512695,0.0311279,
146,0.0561523,0.0316895,
148,-0.0567627,0.0322571,
150,0.0115967,0.032373,
152,0.043335,0.0328064,
154,-0.0805664,0.0336121,
156,0.055542,0.0341675,
158,0.022583,0.0343933,
160,-0.0701904,0.0350952,
162,0.117188,0.0362671,
164,-0.106201,0.0373291,
166,0.0384521,0.0377136,
168,0.0445557,0.0381592,
170,-0.103149,0.0391907,
172,0.0463867,0.0396545,
174,0.00366211,0.0396912,
176,-0.0323486,0.0400146,
178,0.0610352,0.040625,
180,-0.0756836,0.0413818,
182,0.00793457,0.0414612,
184,0.0445557,0.0419067,
186,-0.0543213,0.04245,
188,-0.0384521,0.0428345,
190,0.043335,0.0432678,
192,-0.00366211,0.0433044,
194,-0.0408936,0.0437134,
196,-0.0305176,0.0440186,
198,-0.0268555,0.0442871,
200,0.055542,0.044751,
202,0.0189209,0.0442871,
204,-0.0982666,0.0443604,
206,0.0823975,0.0447937,
208,0.0183105,0.0449158,
210,-0.0775146,0.0450928,
212,0.022583,0.0447815,
214,-0.065918,0.0448853,
216,0.0518799,0.0452576,
218,0.0158691,0.0451172,
220,-0.125122,0.0453552,
222,0.0305176,0.0453308,
224,0.0262451,0.0454163,
226,-0.0598145,0.0456421,
228,0.0665283,0.046283,
230,-0.0469971,0.0467163,
232,0.00854492,0.0465271,
234,0.043335,0.0467407,
236,-0.045166,0.0469055,
238,-0.0469971,0.0471313,
240,0.0335693,0.047052,
242,0.012207,0.0467834,
244,-0.0384521,0.0466248,
246,-0.0219727,0.0466431,
248,-0.0317383,0.0463562,
250,0.0323486,0.0462769,
252,0.043335,0.0464478,
254,-0.117798,0.0466919,
256,0.0756836,0.0468933,
258,0.00488281,0.0466003,
260,-0.0726318,0.0466003,
262,0.0787354,0.046814,
264,-0.0744629,0.0472778,
266,0.0445557,0.0474426,
268,0.0354004,0.0476929,
270,-0.122681,0.0476501,
272,0.0445557,0.0477966,
274,0.055542,0.0480408,
276,-0.0622559,0.0480469,
278,0.0561523,0.0480347,
280,-0.0482178,0.0480042,
282,-0.00183105,0.0477905,
284,0.0457764,0.0480469,
286,-0.045166,0.0480469,
288,-0.0408936,0.0481445,
290,0.0531006,0.0480957,
292,-0.00549316,0.0479004,
294,-0.0299072,0.047522,
296,-0.0390625,0.0472107,
298,-0.0189209,0.046991,
300,0.0482178,0.0473877,
302,0.0201416,0.0473816,
304,-0.109253,0.0474548,
306,0.0732422,0.0475281,
308,0.0360107,0.0477966,
310,-0.0537109,0.0475647,
312,0.00610352,0.046814,
314,-0.0402832,0.0465698,
316,0.0378418,0.0469116,
318,0.045166,0.0468384,
320,-0.10498,0.0468933,
322,0.00732422,0.046637,
324,0.0335693,0.0469055,
326,-0.0524902,0.0468628,
328,0.0482178,0.0470337,
330,-0.0653076,0.0476501,
332,0.0274658,0.0474426,
334,0.0341797,0.0474365,
336,-0.0543213,0.0478271,
338,-0.0469971,0.047998,
340,0.0427246,0.0478638,
342,-0.00427246,0.0475281,
344,-0.0378418,0.0473938,
346,-0.010376,0.046936,
348,-0.0317383,0.0466858,
350,0.0463867,0.0470337,
352,0.0219727,0.0468201,
354,-0.0946045,0.0469604,
356,0.0683594,0.0470886,
358,0.0268555,0.0471313,
360,-0.0836182,0.0472656,
362,0.0720215,0.046814,
364,-0.0598145,0.0463501,
366,0.0366211,0.0463318,
368,0.0250244,0.0461365,
370,-0.101929,0.0461243,
372,0.043335,0.0460937,
374,0.020752,0.0462646,
376,-0.0592041,0.0465332,
378,0.0714111,0.046637,
380,-0.0512695,0.0463928,
382,0.0201416,0.0465149,
384,0.0177002,0.0462463,
386,-0.0506592,0.0462097,
388,-0.0317383,0.0461426,
390,0.0396729,0.046106,
392,0.0158691,0.046228,
394,-0.00915527,0.0459106,
396,-0.0610352,0.0462158,
398,-0.0592041,0.0465393,
400,0.0598145,0.046582,
402,0.0384521,0.0467773,
404,-0.127563,0.0470703,
406,0.0543213,0.0467896,
408,0.0256348,0.0468628,
410,-0.108643,0.0471741,
412,0.0408936,0.0473572,
414,-0.0476074,0.0471741,
416,0.0292969,0.0469482,
418,0.032959,0.0471191,
420,-0.108643,0.0469543,
422,0.0219727,0.0468689,
424,0.0469971,0.0470764,
426,-0.0537109,0.0470154,
428,0.0744629,0.0470947,
430,-0.0646973,0.0472717,
432,0.00610352,0.0472473,
434,0.0579834,0.0473938,
436,-0.0488281,0.0474304,
438,-0.0421143,0.0473816,
440,0.0488281,0.0475342,
442,-0.00305176,0.0474426,
444,-0.032959,0.0473877,
446,-0.0164795,0.0473328,
448,-0.0311279,0.0473267,
450,0.0494385,0.0474976,
452,0.0427246,0.0474915,
454,-0.106201,0.0473755,
456,0.0567627,0.0471863,
458,0.0427246,0.0475647,
460,-0.0823975,0.0476624,
462,0.0830078,0.0477051,
464,-0.0604248,0.0475647,
466,0.0488281,0.0476074,
468,0.0164795,0.0474182,
470,-0.0946045,0.0471375,
472,0.0457764,0.0471497,
474,0.0640869,0.0472351,
476,-0.0604248,0.0472168,
478,0.0372314,0.0470276,
480,-0.0378418,0.0469238,
482,0.0158691,0.0470642,
484,0.0469971,0.0470764,
486,-0.0634766,0.0472595,
488,-0.0512695,0.0473633,
490,0.0518799,0.0473511,
492,0.0170898,0.047467,
494,-0.0390625,0.0475586,
496,-0.0250244,0.0474182,
498,-0.0238037,0.047467,
500,0.0482178,0.047467,
502,0.0286865,0.0475525,
504,-0.102539,0.0474854,
506,0.0567627,0.0473206,
508,0.0567627,0.0475281,
510,-0.10437,0.0480347,
512,0.0256348,0.04823,
514,-0.0213623,0.0480408,
516,0.0402832,0.0480652,
518,0.0140381,0.0477539,
520,-0.122681,0.0479309,
522,0.0421143,0.0482788,
524,0.0360107,0.0483032,
526,-0.0585938,0.0483643,
528,0.045166,0.0483337,
530,-0.0512695,0.0481934,
532,0.0250244,0.0481689,
534,0.0402832,0.04823,
536,-0.0512695,0.0481995,
538,-0.0427246,0.0481567,
540,0.0463867,0.0481934,
542,0.0286865,0.0484375,
544,-0.0457764,0.0485168,
546,0.00183105,0.0484314,
548,-0.0402832,0.0485168,
550,0.0299072,0.0483521,
552,0.0634766,0.0487671,
554,-0.100708,0.0488281,
556,0.0366211,0.0485107,
558,0.0244141,0.0484863,
560,-0.0720215,0.0483704,
562,0.0439453,0.0480896,
564,-0.0665283,0.0481567,
566,0.0219727,0.0480103,
568,0.0231934,0.0479919,
570,-0.123291,0.0482056,
572,0.0256348,0.0480286,
574,0.0317383,0.0481384,
576,-0.0622559,0.0481689,
578,0.0543213,0.047998,
580,-0.0634766,0.0481201,
582,-0.0152588,0.0480713,
584,0.0427246,0.0483215,
586,-0.0628662,0.0484436,
588,-0.0341797,0.048468,
590,0.0323486,0.0483948,
592,0.0115967,0.0483521,
594,-0.0585938,0.0488464,
596,-0.032959,0.0485657,
598,-0.00976563,0.0480713,
600,0.0341797,0.0478149,
602,0.0262451,0.0476929,
604,-0.123291,0.0476501,
606,0.0585938,0.0476929,
608,0.043335,0.0478699,
610,-0.0994873,0.0477783,
612,0.0402832,0.0477722,
614,-0.0421143,0.0477173,
616,0.0341797,0.0477661,
618,0.0512695,0.0479492,
620,-0.132446,0.0481873,
622,0.020752,0.048175,
624,0.0494385,0.0481995,
626,-0.0579834,0.0482422,
628,0.0457764,0.0479553,
630,-0.0805664,0.048114,
632,0,0.048053,
634,0.0445557,0.0479187,
636,-0.0341797,0.0477722,
638,-0.0500488,0.0478516,
640,0.0445557,0.0478088,
642,0.0219727,0.047998,
644,-0.0457764,0.0481262,
646,-0.0140381,0.0481018,
648,-0.032959,0.0481201,
650,0.057373,0.0481995,
652,0.010376,0.047876,
654,-0.109253,0.0479065,
656,0.057373,0.0479126,
658,0.0354004,0.0478394,
660,-0.0866699,0.0478821,
662,0.0714111,0.0477661,
664,-0.0457764,0.0476196,
666,0.0183105,0.0473145,
668,0.0268555,0.0474182,
670,-0.098877,0.0474609,
672,0.0140381,0.0471436,
674,0.0274658,0.0467773,
676,-0.0616455,0.0467896,
678,0.0616455,0.0470337,
680,-0.0909424,0.0475647,
682,0.0378418,0.0477844,
684,0.0177002,0.0474915,
686,-0.0494385,0.0473511,
688,-0.0201416,0.0470398,
690,0.0274658,0.0467957,
692,0.0445557,0.0470703,
694,-0.0793457,0.0474731,
696,-0.0219727,0.0474426,
698,-0.0158691,0.0473633,
700,0.022583,0.0471069,
702,0.0128174,0.0469482,
704,-0.116577,0.0470886,
706,0.0653076,0.0471741,
708,0.0317383,0.0469238,
710,-0.10437,0.0469238,
712,-0.000610352,0.0466736,
714,-0.0201416,0.0466614,
716,0.0299072,0.0465576,
718,0.00854492,0.0465027,
720,-0.109253,0.0463684,
722,0.0219727,0.046167,
724,0.0299072,0.046106,
726,-0.0396729,0.0459167,
728,0.0372314,0.0458374,
730,-0.0531006,0.0458557,
732,0.0201416,0.0458069,
734,0.0280762,0.0456848,
736,-0.0476074,0.0456482,
738,-0.0268555,0.0454895,
740,0.043335,0.045459,
742,-0.043335,0.0456055,
744,-0.0231934,0.0453796,
746,-0.000610352,0.0453674,
748,-0.0524902,0.0454895,
750,0.0598145,0.0457886,
752,0.0396729,0.0455505,
754,-0.12146,0.0457581,
756,0.0640869,0.0460327,
758,0.00427246,0.0458313,
760,-0.0378418,0.0454895,
762,0.0970459,0.0460205,
764,-0.0964355,0.0463196,
766,0.010376,0.0462036,
768,0.0317383,0.0462891,
770,-0.0543213,0.0455994,
772,0.0482178,0.0458252,
774,0.00183105,0.0455261,
776,-0.0488281,0.0453918,
778,0.0811768,0.0456604,
780,-0.0646973,0.0456726,
782,0.0305176,0.0458252,
784,0.0323486,0.0457214,
786,-0.0415039,0.0455078,
788,-0.0335693,0.0455017,
790,0.0482178,0.0456604,
792,-0.0012207,0.0455566,
794,-0.0494385,0.0454651,
796,-0.00244141,0.0451599,
798,-0.0469971,0.0455322,
800,0.0384521,0.045575,
802,0.0390625,0.0457031,
804,-0.140991,0.0458801,
806,0.067749,0.0459717,
808,0.0335693,0.045874,
810,-0.0939941,0.0458191,
812,0.0354004,0.0457703,
814,-0.0732422,0.0460815,
816,0.0396729,0.0461365,
818,0.0408936,0.0460327,
820,-0.130005,0.0460083,
822,0.0140381,0.0459412,
824,0.0683594,0.0461304,
826,-0.0457764,0.0460083,
828,0.0354004,0.0459045,
830,-0.0402832,0.0455017,
832,0.00549316,0.0455566,
834,0.0506592,0.0456177,
836,-0.0415039,0.0456909,
838,-0.0457764,0.0456482,
840,0.0531006,0.0457336,
842,-0.00305176,0.0455444,
844,-0.0616455,0.0457031,
846,-0.0152588,0.0457153,
848,-0.0219727,0.0456055,
850,0.0274658,0.0453064,
852,0.03479,0.0455505,
854,-0.114136,0.0455994,
856,0.055542,0.0455811,
858,-0.00305176,0.0452576,
860,-0.0488281,0.0448792,
862,0.0848389,0.0450134,
864,-0.0378418,0.0449341,
866,-0.0256348,0.0450073,
868,0.0390625,0.0451294,
870,-0.0683594,0.0448242,
872,0.0488281,0.0451721,
874,0.0152588,0.04505,
876,-0.0598145,0.0450317,
878,0.0848389,0.0452637,
880,-0.0836182,0.0451904,
882,0.0012207,0.0448242,
884,0.0305176,0.0449524,
886,-0.0195313,0.0446533,
888,-0.0537109,0.044989,
890,0.0457764,0.0451721,
892,0.00915527,0.0448181,
894,-0.0457764,0.0444824,
896,-0.0415039,0.0446777,
898,-0.0317383,0.0448364,
900,0.0482178,0.0450928,
902,0.0262451,0.0452271,
904,-0.113525,0.0451965,
906,0.0592041,0.0451355,
908,0.0341797,0.0451599,
910,-0.090332,0.0450195,
912,0.0274658,0.0452881,
914,-0.0396729,0.0454834,
916,0.0317383,0.0455017,
918,0.0262451,0.0456787,
920,-0.106201,0.0456482,
922,0.0244141,0.0456726,
924,0.0238037,0.0456116,
926,-0.065918,0.045874,
928,0.0543213,0.0460449,
930,-0.0488281,0.0460022,
932,0.0109863,0.0459106,
934,0.03479,0.0459778,
936,-0.0128174,0.0456299,
938,-0.0598145,0.0459595,
940,0.0482178,0.0460083,
942,0.0213623,0.0457886,
944,-0.0512695,0.0460693,
946,-0.00305176,0.0460937,
948,-0.0372314,0.0459412,
950,0.0323486,0.0456665,
952,0.0305176,0.045575,
954,-0.112915,0.0454895,
956,0.0726318,0.045575,
958,-0.00976563,0.0456299,
960,-0.0628662,0.0458801,
962,0.112305,0.0460327,
964,-0.0964355,0.0460327,
966,0.0170898,0.0460999,
968,0.032959,0.0461121,
970,-0.090332,0.0464722,
972,0.0244141,0.0462341,
974,0.0201416,0.0464172,
976,-0.0518799,0.0464478,
978,0.057373,0.0462097,
980,-0.0701904,0.0462646,
982,-0.00488281,0.0460083,
984,0.0506592,0.0461914,
986,-0.0280762,0.0460571,
988,-0.0390625,0.0461121,
990,0.0531006,0.0461609,
992,-0.00427246,0.0461914,
994,-0.0561523,0.0462585,
996,-0.0140381,0.0463745,
998,-0.0262451,0.046167,
1000,0.0201416,0.0459839,
1002,0.0244141,0.0458374,
1004,-0.124512,0.0456726,
1006,0.0372314,0.0453674,
1008,0.0177002,0.0452087,
1010,-0.0592041,0.0448608,
1012,0.0610352,0.0451172,
1014,-0.0415039,0.0447998,
1016,-0.0164795,0.0445679,
1018,0.045166,0.0446106,
1020,-0.0817871,0.0441284,
1022,0.0250244,0.0442383,
1024,0.0274658,0.0438293,
1026,-0.0378418,0.04375,
1028,0,0.043396,
1030,0.00976563,0.0430908,
1032,-0.0463867,0.0434998,
1034,0.0390625,0.0433838,
1036,0.00610352,0.0430298,
1038,-0.0549316,0.0431213,
1040,0.0585938,0.0431763,
1042,-0.012207,0.0432678,
1044,-0.0592041,0.0432434,
1046,0.0976563,0.0440674,
1048,-0.0512695,0.0443604,
1050,0.0189209,0.0442749,
1052,0.0482178,0.0444092,
1054,-0.100708,0.0442749,
1056,0.0756836,0.0444763,
1058,-0.00915527,0.0445374,
1060,-0.0445557,0.0444946,
1062,0.0616455,0.0442627,
1064,-0.0836182,0.0447205,
1066,0.0335693,0.0447998,
1068,0.0354004,0.0447632,
1070,-0.0994873,0.0450745,
1072,0.0262451,0.0448486,
1074,0.0195313,0.0448914,
1076,0.0158691,0.0444519,
1078,-0.00732422,0.0436768,
1080,-0.0274658,0.0431152,
1082,0.0299072,0.0434021,
1084,0.0421143,0.0435181,
1086,-0.057373,0.0438965,
1088,-0.0384521,0.0437439,
1090,0.0622559,0.0439087,
1092,0.0531006,0.0443481,
1094,-0.0842285,0.0447327,
1096,-0.0341797,0.0446594,
1098,-0.0152588,0.0444946,
1100,0.0524902,0.0445374,
1102,0.0494385,0.0447693,
1104,-0.125732,0.0448914,
1106,0.0341797,0.0446411,
1108,0.0439453,0.0447388,
1110,-0.0671387,0.0445068,
1112,0.117188,0.0454041,
1114,-0.088501,0.0458923,
1116,0.0402832,0.0459778,
1118,0.0439453,0.0461548,
1120,-0.0823975,0.0459167,
1122,-0.0109863,0.0457825,
1124,0.03479,0.0458923,
1126,-0.0360107,0.0455933,
1128,0,0.04505,
1130,0.020752,0.0447693,
1132,-0.055542,0.0452148,
1134,0.0335693,0.0452026,
1136,0.0140381,0.0452148,
1138,-0.0567627,0.0451843,
1140,0.0531006,0.0452332,
1142,-0.0170898,0.0451904,
1144,-0.0415039,0.0450928,
1146,0.0231934,0.0452942,
1148,-0.0646973,0.0455688,
1150,0.0280762,0.0455261,
1152,0.0421143,0.0456421,
1154,-0.102539,0.0455383,
1156,0.0585938,0.0453979,
1158,0.00366211,0.0453369,
1160,-0.0750732,0.045459,
1162,0.100098,0.0453369,
1164,-0.0939941,0.0453125,
1166,0.0457764,0.0455994,
1168,0.0152588,0.0454224,
1170,-0.0866699,0.0453857,
1172,0.0274658,0.0454163,
1174,0.0244141,0.045459,
1176,-0.0488281,0.0454285,
1178,0.0372314,0.0452271,
1180,-0.0506592,0.0450317,
1182,0.0268555,0.0452515,
1184,0.0445557,0.0451904,
1186,-0.0646973,0.0455566,
1188,-0.0268555,0.0454346,
1190,0.0537109,0.0454407,
1192,0.0305176,0.0457031,
1194,-0.0646973,0.0457886,
1196,-0.0396729,0.0460449,
1198,-0.0201416,0.0459839,
1200,0.0305176,0.0460876,
1202,0.0305176,0.0461487,
1204,-0.130615,0.0462097,
1206,0.0506592,0.046344,
1208,0.0360107,0.0465271,
1210,-0.0970459,0.0469055,
1212,0.0457764,0.0467529,
1214,-0.0482178,0.0468201,
1216,0.0311279,0.0469666,
1218,0.0384521,0.0468994,
1220,-0.103149,0.047113,
1222,0.0372314,0.0472351,
1224,0.0158691,0.0471191,
1226,-0.0286865,0.0470276,
1228,0.0384521,0.0474121,
1230,-0.0396729,0.0477112,
1232,0.00976563,0.047345,
1234,0.03479,0.0473022,
1236,-0.0268555,0.0475098,
1238,-0.0592041,0.0475525,
1240,0.0543213,0.0475098,
1242,0.0335693,0.0477234,
1244,-0.0543213,0.0476746,
1246,-0.0317383,0.0470154,
1248,-0.0134277,0.046637,
1250,0.0408936,0.0468567,
1252,0.0317383,0.0466919,
1254,-0.126343,0.0469482,
1256,0.0598145,0.0467896,
1258,0.0524902,0.0472229,
1260,-0.103149,0.0478088,
1262,0.0518799,0.0477112,
1264,-0.0457764,0.0473328,
1266,0.0463867,0.0474609,
1268,0.0201416,0.0473083,
1270,-0.129395,0.0476074,
1272,0.0244141,0.0475891,
1274,0.0354004,0.0477478,
1276,-0.03479,0.047937,
1278,0.0421143,0.0482849,
1280,-0.078125,0.0487915,
1282,0.0335693,0.0488281,
1284,0.032959,0.0487366,
1286,-0.0354004,0.0485168,
1288,-0.0366211,0.0484985,
1290,0.0415039,0.048291,
1292,0.032959,0.0480896,
1294,-0.0762939,0.0480103,
1296,-0.0177002,0.0478455,
1298,-0.022583,0.0479187,
1300,0.0439453,0.0478333,
1302,0.0317383,0.0476562,
1304,-0.117188,0.0475708,
1306,0.0482178,0.0477112,
1308,0.0427246,0.047699,
1310,-0.0708008,0.0477356,
1312,0.0482178,0.0470459,
1314,-0.0506592,0.0466675,
1316,0.0396729,0.0466614,
1318,0.0268555,0.0464905,
1320,-0.0933838,0.0466003,
1322,-0.00915527,0.046582,
1324,0.0292969,0.0465271,
1326,-0.0408936,0.0465759,
1328,0.0384521,0.0469604,
1330,-0.0805664,0.0475586,
1332,0.00549316,0.0470581,
1334,0.0390625,0.047113,
1336,-0.0299072,0.0472717,
1338,-0.0610352,0.0473145,
1340,0.0469971,0.0472534,
1342,-0.010376,0.0471863,
1344,-0.0402832,0.0471741,
1346,0,0.0469421,
1348,-0.0628662,0.0469238,
1350,0.0469971,0.047113,
1352,0.032959,0.0470215,
1354,-0.10498,0.0470459,
1356,0.0579834,0.0470398,
1358,0.0213623,0.0472168,
1360,-0.0646973,0.047113,
1362,0.0738525,0.0468506,
1364,-0.0708008,0.0466187,
1366,0.0408936,0.0465698,
1368,0.022583,0.0466431,
1370,-0.115967,0.046936,
1372,0.0244141,0.0469055,
1374,0.0335693,0.0469971,
1376,-0.0476074,0.0469849,
1378,0.0280762,0.0468933,
1380,-0.0567627,0.0469543,
1382,0.012207,0.0468079,
1384,0.0292969,0.0466553,
1386,-0.0323486,0.0463318,
1388,-0.0640869,0.0467041,
1390,0.0762939,0.0469299,
1392,0.020752,0.0468323,
1394,-0.0494385,0.0466797,
1396,0.0158691,0.0464417,
1398,-0.010376,0.046344,
1400,0.0292969,0.0463318,
1402,0.0537109,0.0465637,
1404,-0.105591,0.0463135,
1406,0.0585938,0.0463928,
1408,0.0268555,0.0463013,
1410,-0.0958252,0.0462891,
1412,0.0732422,0.0465637,
1414,-0.0695801,0.0467773,
1416,0.012207,0.0465881,
1418,0.0482178,0.0466858,
1420,-0.10437,0.046698,
1422,0.0305176,0.0466309,
1424,0.0183105,0.0466553,
1426,-0.0476074,0.0468445,
1428,0.0463867,0.0469238,
1430,-0.0427246,0.0469543,
1432,-0.0189209,0.0470459,
1434,0.0457764,0.0471558,
1436,0.00671387,0.0469543,
1438,-0.0463867,0.0468262,
1440,0.0482178,0.0467651,
1442,-0.0134277,0.0465637,
1444,-0.0415039,0.0464355,
1446,0.0415039,0.0465332,
1448,-0.0689697,0.0470886,
1450,0.0262451,0.0469421,
1452,0.0524902,0.0471497,
1454,-0.114136,0.0470276,
1456,0.0628662,0.0470581,
1458,0,0.0465332,
1460,-0.0469971,0.0459717,
1462,0.0653076,0.046106,
1464,-0.0244141,0.0458923,
1466,-0.0280762,0.0457092,
1468,0.0372314,0.0458801,
1470,-0.0506592,0.0450928,
1472,0.00793457,0.044928,
1474,0.0146484,0.0447205,
1476,-0.0427246,0.0447998,
1478,-0.0170898,0.0445496,
1480,0.0177002,0.0439453,
1482,-0.0610352,0.04422,
1484,0.0244141,0.0441345,
1486,0.020752,0.043988,
1488,-0.0799561,0.0444214,
1490,0.0689697,0.044696,
1492,-0.0152588,0.044519,
1494,-0.0610352,0.0443665,
1496,0.0726318,0.0449158,
1498,-0.0610352,0.0453003,
1500,0.0354004,0.0452148,
1502,0.0286865,0.0451843,
1504,-0.112305,0.0451355,
1506,0.0622559,0.0452759,
1508,0.0524902,0.0453735,
1510,-0.0866699,0.0455322,
1512,0.0219727,0.0452698,
1514,-0.0439453,0.0452026,
1516,0.0335693,0.0451416,
1518,0.03479,0.0452209,
1520,-0.10376,0.0453247,
1522,0.00671387,0.0453003,
1524,0.0341797,0.0453491,
1526,-0.00366211,0.0449768,
1528,0.00305176,0.0446228,
1530,-0.0463867,0.044281,
1532,0.010376,0.0443298,
1534,0.0280762,0.04422,
1536,-0.0158691,0.0440796,
1538,-0.0537109,0.0440063,
1540,0.0518799,0.0440552,
1542,0.045166,0.0444031,
1544,-0.0695801,0.044696,
1546,0.0134277,0.0448303,
1548,-0.0378418,0.0445801,
1550,0.0372314,0.0444824,
1552,0.0323486,0.0444763,
1554,-0.132446,0.044751,
1556,0.0616455,0.0447876,
1558,0.00183105,0.0445923,
1560,-0.0537109,0.0444824,
1562,0.0866699,0.0446106,
1564,-0.0836182,0.0447388,
1566,0.0280762,0.0446106,
1568,0.0390625,0.0447754,
1570,-0.0634766,0.0442505,
1572,-0.0146484,0.0441528,
1574,0.0402832,0.04422,
1576,-0.0402832,0.0441467,
1578,0.0561523,0.0444275,
1580,-0.0610352,0.0444702,
1582,-0.0219727,0.0445679,
1584,0.0463867,0.0447388,
1586,-0.00305176,0.0444458,
1588,-0.0524902,0.0443298,
1590,0.0415039,0.0439819,
1592,-0.0292969,0.0440674,
1594,-0.0427246,0.0440002,
1596,0.0482178,0.0443237,
1598,-0.0756836,0.0449768,
1600,0.0366211,0.04505,
1602,0.0476074,0.044989,
1604,-0.10498,0.0449829,
1606,0.0598145,0.0449951,
1608,0.0262451,0.044989,
1610,-0.0750732,0.0447815,
1612,0.0830078,0.0448792,
1614,-0.078125,0.0449646,
1616,0.03479,0.0451904,
1618,0.0115967,0.0448242,
1620,-0.10498,0.0448303,
1622,0.0164795,0.0446899,
1624,0.0341797,0.0448486,
1626,-0.0280762,0.0446533,
1628,0.0250244,0.0444397,
1630,-0.0598145,0.0446106,
1632,-0.00183105,0.0444397,
1634,0.0482178,0.0444641,
1636,-0.0146484,0.0445435,
1638,-0.057373,0.0446533,
1640,0.0457764,0.0446289,
1642,0.0311279,0.0448059,
1644,-0.0799561,0.0451904,
1646,-0.00732422,0.0448486,
1648,-0.0292969,0.0444519,
1650,0.0396729,0.0445862,
1652,0.0335693,0.044397,
1654,-0.0976563,0.0442322,
1656,0.0402832,0.0440063,
1658,0.0408936,0.0444153,
1660,-0.0842285,0.0447876,
1662,0.0744629,0.0448792,
1664,-0.0610352,0.0452454,
1666,0.0292969,0.0452576,
1668,0.0323486,0.0452087,
1670,-0.0933838,0.045636,
1672,0,0.0455566,
1674,0.0482178,0.0458923,
1676,-0.0415039,0.0458801,
1678,0.0439453,0.0461487,
1680,-0.0671387,0.0466431,
1682,0.0012207,0.0460449,
1684,0.0482178,0.046283,
1686,0.00244141,0.0460999,
1688,-0.0585938,0.0458862,
1690,0.0732422,0.045929,
1692,-0.0286865,0.0460632,
1694,-0.0390625,0.0458435,
1696,0.0128174,0.0452454,
1698,-0.0280762,0.0449158,
1700,0.0140381,0.0447021,
1702,0.0335693,0.044751,
1704,-0.10437,0.0446716,
1706,0.0817871,0.0448669,
1708,0.0128174,0.0444702,
1710,-0.0817871,0.0444214,
1712,0.0866699,0.0450684,
1714,-0.0585938,0.0452148,
1716,0.0158691,0.0450378,
1718,0.0402832,0.0450928,
1720,-0.109253,0.0451477,
1722,0.00488281,0.0451294,
1724,0.0244141,0.0450317,
1726,-0.0317383,0.0453125,
1728,0.0164795,0.0454468,
1730,-0.0518799,0.0455017,
1732,0.000610352,0.0454041,
1734,0.022583,0.0453491,
1736,-0.00854492,0.0452759,
1738,-0.0640869,0.0453796,
1740,0.0549316,0.0454102,
1742,0.0268555,0.0452271,
1744,-0.0567627,0.0450989,
1746,-0.0109863,0.0450745,
1748,-0.0531006,0.0452271,
1750,0.0512695,0.0453674,
1752,0.0201416,0.0452454,
1754,-0.125122,0.0451721,
1756,0.0482178,0.0450378,
1758,0.0134277,0.0451538,
1760,-0.0866699,0.0454834,
1762,0.0817871,0.0454346,
1764,-0.0769043,0.0453674,
1766,0.0280762,0.0453674,
1768,0.0286865,0.0452637,
1770,-0.0878906,0.0455078,
1772,0.00671387,0.0454285,
1774,0.0354004,0.0453796,
1776,-0.0268555,0.0452454,
1778,0.0372314,0.0450562,
1780,-0.0689697,0.0451355,
1782,-0.00732422,0.044989,
1784,0.0415039,0.0449402,
1786,-0.000610352,0.0449158,
1788,-0.0799561,0.0451904,
1790,0.0457764,0.0452332,
1792,0.0238037,0.0451782,
1794,-0.0823975,0.045575,
1796,-0.00183105,0.0451111,
1798,-0.0421143,0.0447754,
1800,0.0469971,0.0448792,
1802,0.0396729,0.0447998,
1804,-0.12207,0.0449707,
1806,0.0537109,0.0449097,
1808,0.0341797,0.044989,
1810,-0.0775146,0.0450134,
1812,0.0640869,0.0448242,
1814,-0.0579834,0.0446228,
1816,0.0469971,0.0447449,
1818,0.0250244,0.0448792,
1820,-0.100708,0.0448364,
1822,0.0128174,0.0447998,
1824,0.0378418,0.0448364,
1826,-0.03479,0.0449036,
1828,0.0299072,0.0449524,
1830,-0.0524902,0.0448792,
1832,-0.00244141,0.0448853,
1834,0.0421143,0.0448242,
1836,-0.00183105,0.044696,
1838,-0.0683594,0.0448059,
1840,0.0653076,0.0450012,
1842,0.0201416,0.0448914,
1844,-0.0640869,0.0447327,
1846,0.00427246,0.0447021,
1848,-0.032959,0.0447388,
1850,0.045166,0.0447937,
1852,0.022583,0.0446838,
1854,-0.117798,0.0448853,
1856,0.0482178,0.0449646,
1858,0.0286865,0.0448425,
1860,-0.0720215,0.0447205,
1862,0.0769043,0.0447449,
1864,-0.067749,0.044812,
1866,0.0170898,0.0446899,
1868,0.0537109,0.0449036,
1870,-0.0921631,0.0448914,
1872,0.00305176,0.0449219,
1874,0.0274658,0.0447144,
1876,-0.0378418,0.0446777,
1878,0.0170898,0.0444092,
1880,-0.0543213,0.044281,
1882,-0.00305176,0.0442993,
1884,0.0341797,0.0441589,
1886,-0.00427246,0.0441772,
1888,-0.0561523,0.0441528,
1890,0.0579834,0.0440002,
1892,0.0189209,0.0439026,
1894,-0.0604248,0.0441162,
1896,0.0195313,0.0441833,
1898,-0.0518799,0.0444214,
1900,0.0445557,0.0447266,
1902,0.0390625,0.0447815,
1904,-0.125122,0.044989,
1906,0.0463867,0.044635,
1908,0.032959,0.0448364,
1910,-0.0665283,0.0446838,
1912,0.0665283,0.0444824,
1914,-0.0726318,0.0446228,
1916,0.0463867,0.044928,
1918,0.0457764,0.0449829,
1920,-0.0891113,0.0447815,
1922,0.0250244,0.0449829,
1924,0.0128174,0.0448669,
1926,-0.0292969,0.0448425,
1928,0.012207,0.0447998,
1930,-0.0518799,0.0447998,
1932,-0.0134277,0.044928,
1934,0.0256348,0.0449585,
1936,-0.0134277,0.0450073,
1938,-0.0738525,0.045105,
1940,0.0439453,0.0449951,
1942,0.0146484,0.044873,
1944,-0.0610352,0.0449158,
1946,0.0109863,0.0449158,
1948,-0.0561523,0.0449463,
1950,0.0427246,0.0448608,
1952,0.0354004,0.0450134,
1954,-0.12207,0.0449829,
1956,0.0579834,0.0450806,
1958,0.0280762,0.0452271,
1960,-0.0756836,0.0451172,
1962,0.0762939,0.0450623,
1964,-0.0738525,0.0450317,
1966,0.0195313,0.0449463,
1968,0.0445557,0.045105,
1970,-0.101929,0.0452454,
1972,0.00183105,0.0451965,
1974,0.0402832,0.0452454,
1976,-0.0195313,0.0451721,
1978,0.00915527,0.0448914,
1980,-0.0500488,0.0447021,
1982,0.020752,0.0448364,
1984,0.043335,0.0448547,
1986,0.0152588,0.0450012,
1988,-0.0726318,0.044928,
1990,0.0610352,0.0450806,
1992,0.022583,0.0450684,
1994,-0.0787354,0.0450317,
1996,0.0231934,0.0452454,
1998,-0.0622559,0.0454468,
2000,0.0640869,0.0456177,
2002,0.032959,0.0455505,
2004,-0.114746,0.0454773,
2006,0.0317383,0.0452576,
2008,0.0463867,0.0453796,
2010,-0.0689697,0.0452942,
2012,0.0585938,0.0452393,
2014,-0.0646973,0.0453064,
2016,0.0335693,0.0451721,
2018,0.0256348,0.0451782,
2020,-0.0958252,0.0451294,
2022,-0.00854492,0.0450867,
2024,0.0408936,0.0451172,
2026,-0.0268555,0.0450378,
2028,0.0286865,0.0450256,
2030,-0.0689697,0.0451904,
2032,0.0146484,0.0453125,
2034,0.0256348,0.0451477,
2036,0.0213623,0.045343,
2038,-0.0811768,0.0454712,
2040,0.065918,0.0454773,
2042,0.0183105,0.045459,
2044,-0.0878906,0.045697,
2046,0.0140381,0.0457947,
2048,-0.0439453,0.0459045,
2050,0.0250244,0.0457031,
2052,0.032959,0.0458069,
2054,-0.111694,0.0457458,
2056,0.0366211,0.0456299,
2058,0.0402832,0.0457458,
2060,-0.0653076,0.0456787,
2062,0.0769043,0.0456787,
2064,-0.0750732,0.045752,
2066,0.03479,0.045929,
2068,0.0494385,0.0458862,
2070,-0.10498,0.0460144,
2072,-0.0183105,0.046167,
2074,0.0384521,0.0462769,
2076,-0.0299072,0.0461975,
2078,0.0195313,0.0462219,
2080,-0.0640869,0.0463196,
2082,-0.000610352,0.0462952,
2084,0.0280762,0.0462341,
2086,-0.00488281,0.0462402,
2088,-0.0744629,0.0464233,
2090,0.0579834,0.0464233,
2092,0.0292969,0.0465271,
2094,-0.0811768,0.0467346,
2096,0.00427246,0.046582,
2098,-0.0360107,0.0464233,
2100,0.0372314,0.0463501,
2102,0.0189209,0.0461487,
2104,-0.10376,0.0459351,
2106,0.0402832,0.045874,
2108,0.0415039,0.0459595,
2110,-0.0714111,0.0460083,
2112,0.0689697,0.0460327,
2114,-0.0543213,0.0458496,
2116,0.0213623,0.0455994,
2118,0.0415039,0.0455566,
2120,-0.0646973,0.0453125,
2122,-0.0177002,0.0452393,
2124,-0.0012207,0.0451233,
2126,-0.0115967,0.0449463,
2128,0.0280762,0.045105,
2130,-0.0665283,0.0452515,
2132,0.00427246,0.0451599,
2134,0.0238037,0.0451416,
2136,0.012207,0.0451294,
2138,-0.0646973,0.0450378,
2140,0.0708008,0.0453064,
2142,0.0164795,0.0453247,
2144,-0.0695801,0.0454102,
2146,-0.00305176,0.0453308,
2148,-0.0561523,0.0453308,
2150,0.0390625,0.0452942,
2152,0.0256348,0.0451965,
2154,-0.128784,0.0452637,
2156,0.0390625,0.0450745,
2158,0.0292969,0.0450867,
2160,-0.0671387,0.0450012,
2162,0.0756836,0.0449951,
2164,-0.0762939,0.0450195,
2166,0.0134277,0.0449585,
2168,0.0512695,0.0450256,
2170,-0.0842285,0.0448486,
2172,-0.00732422,0.0449036,
2174,0.0238037,0.0447388,
2176,-0.022583,0.0447693,
2178,0.0250244,0.044928,
2180,-0.0439453,0.0448669,
2182,-0.00671387,0.0447266,
2184,0.0354004,0.0446472,
2186,0.010376,0.0445984,
2188,-0.0701904,0.044574,
2190,0.043335,0.044397,
2192,0.032959,0.0445007,
2194,-0.0695801,0.0444092,
2196,0.00549316,0.0442322,
2198,-0.0469971,0.0440796,
2200,0.0543213,0.0439819,
2202,0.0512695,0.044165,
2204,-0.0891113,0.0439087,
2206,0.0372314,0.0439636,
2208,0.0238037,0.0437378,
2210,-0.0543213,0.0435913,
2212,0.0775146,0.0437805,
2214,-0.0671387,0.0438049,
2216,0.0268555,0.0437378,
2218,0.0286865,0.0437683,
2220,-0.112915,0.0439392,
2222,-0.0140381,0.0439941,
2224,0.0476074,0.0440613,
2226,-0.0292969,0.0440857,
2228,0.0109863,0.0439087,
2230,-0.0396729,0.0436157,
2232,-0.00854492,0.0435547,
2234,0.0305176,0.0436035,
2236,0.0109863,0.0434998,
2238,-0.065918,0.0433472,
2240,0.0512695,0.0432007,
2242,0.0134277,0.0431519,
2244,-0.065918,0.0429321,
2246,0.0177002,0.0429688,
2248,-0.0628662,0.043158,
2250,0.0488281,0.043396,
2252,0.0506592,0.043573,
2254,-0.12085,0.0436646,
2256,0.0408936,0.0437073,
2258,0.0378418,0.0436829,
2260,-0.0726318,0.0437561,
2262,0.0769043,0.0437561,
2264,-0.0726318,0.0437317,
2266,0.0299072,0.0436829,
2268,0.0390625,0.0435791,
2270,-0.0817871,0.0433472,
2272,-0.0170898,0.043335,
2274,0.0488281,0.0434387,
2276,-0.0231934,0.0433716,
2278,0.00610352,0.0432373,
2280,-0.0463867,0.0430603,
2282,0.00549316,0.0431091,
2284,0.0354004,0.0431824,
2286,0.00854492,0.043219,
2288,-0.0732422,0.0432068,
2290,0.0543213,0.0431702,
2292,0.0317383,0.0431946,
2294,-0.0872803,0.0432556,
2296,0.0213623,0.0434265,
2298,-0.0463867,0.0435303,
2300,0.0421143,0.0435791,
2302,0.0262451,0.0436523,
2304,-0.119629,0.043811,
2306,0.0476074,0.0438843,
2308,0.0311279,0.0437805,
2310,-0.0634766,0.0437012,
2312,0.0750732,0.0437622,
2314,-0.0610352,0.0438293,
2316,0.0262451,0.0438782,
2318,0.0292969,0.0437561,
2320,-0.0830078,0.0439392,
2322,-0.00305176,0.0437927,
2324,0.0317383,0.0440979,
2326,-0.0244141,0.0442261,
2328,0.00305176,0.0439758,
2330,-0.0317383,0.0436279,
2332,-0.0201416,0.0437866,
2334,0.043335,0.0439819,
2336,0.0231934,0.0440918,
2338,-0.0775146,0.04422,
2340,0.0524902,0.0440369,
2342,0.0372314,0.0442444,
2344,-0.0744629,0.0442932,
2346,0.0360107,0.0446228,
2348,-0.0457764,0.044519,
2350,0.0354004,0.0444824,
2352,0.0274658,0.0445007,
2354,-0.125122,0.0444641,
2356,0.0689697,0.0447632,
2358,0.0274658,0.0447449,
2360,-0.090332,0.0449768,
2362,0.078125,0.0450012,
2364,-0.0653076,0.0448914,
2366,0.0195313,0.0449524,
2368,0.0372314,0.044812,
2370,-0.0933838,0.0449036,
2372,-0.0134277,0.0449646,
2374,0.0341797,0.0450684,
2376,-0.00854492,0.044928,
2378,-0.00671387,0.0447449,
2380,-0.0500488,0.0448059,
2382,0.00671387,0.0448059,
2384,0.0408936,0.0448608,
2386,-0.00549316,0.044812,
2388,-0.0524902,0.044635,
2390,0.0396729,0.0445984,
2392,0.0366211,0.044635,
2394,-0.0628662,0.0445679,
2396,0.0219727,0.0447327,
2398,-0.0415039,0.0446777,
2400,0.0335693,0.0444702,
2402,0.0561523,0.044519,
2404,-0.124512,0.044873,
2406,0.0341797,0.0448425,
2408,0.0286865,0.0448914,
2410,-0.0469971,0.0448181,
2412,0.0708008,0.044751,
2414,-0.0738525,0.0448181,
2416,0.032959,0.0448792,
2418,0.043335,0.0450256,
2420,-0.0689697,0.0445862,
2422,-0.0109863,0.0445557,
2424,0.0323486,0.0444031,
2426,-0.00549316,0.044165,
2428,0.0195313,0.0442505,
2430,-0.0488281,0.044342,
2432,-0.0177002,0.0444336,
2434,0.032959,0.044458,
2436,0.0341797,0.0446899,
2438,-0.0842285,0.044873,
2440,0.0561523,0.0449219,
2442,0.0256348,0.0450439,
2444,-0.0872803,0.0452576,
2446,0.0311279,0.0453918,
2448,-0.0622559,0.0453857,
2450,0.0628662,0.0455261,
2452,0.0256348,0.0452759,
2454,-0.119019,0.0452576,
2456,0.0463867,0.0453125,
2458,0.0402832,0.0453369,
2460,-0.0640869,0.0452515,
2462,0.0830078,0.0453125,
2464,-0.0726318,0.0453125,
2466,0.0140381,0.0451538,
2468,0.0756836,0.04552,
2470,-0.0836182,0.0455383,
2472,-0.0305176,0.0456726,
2474,0.0341797,0.0455261,
2476,0.00610352,0.0453552,
2478,-0.0012207,0.0453064,
2480,-0.0592041,0.0454346,
2482,-0.0012207,0.0453918,
2484,0.0384521,0.0454224,
2486,0.020752,0.0455444,
2488,-0.0836182,0.0456482,
2490,0.0628662,0.0457336,
2492,0.0292969,0.0457092,
2494,-0.090332,0.0457397,
2496,0.0231934,0.0457581,
2498,-0.0634766,0.045929,
2500,0.0537109,0.0460449,
2502,0.0341797,0.0461243,
2504,-0.112915,0.0460571,
2506,0.0274658,0.0458557,
2508,0.0305176,0.0458496,
2510,-0.0317383,0.0455322,
2512,0.0787354,0.0455688,
2514,-0.0793457,0.045752,
2516,0.0274658,0.0457642,
2518,0.0439453,0.0459106,
2520,-0.0805664,0.0458862,
2522,-0.0152588,0.0460083,
2524,0.03479,0.0460388,
2526,-0.00732422,0.0458679,
2528,-0.0262451,0.0460999,
2530,-0.0378418,0.0461609,
2532,-0.00793457,0.0460388,
2534,0.055542,0.0461609,
2536,-0.00671387,0.0459961,
2538,-0.0750732,0.0459717,
2540,0.0604248,0.046051,
2542,0.0292969,0.0459717,
2544,-0.0958252,0.0461853,
2546,0.0311279,0.0461365,
2548,-0.043335,0.0461121,
2550,0.0244141,0.0460022,
2552,0.0286865,0.0460144,
2554,-0.123291,0.0459961,
2556,0.0598145,0.0459045,
2558,0.0195313,0.0458252,
2560,-0.065918,0.0455811,
2562,0.0799561,0.0455994,
2564,-0.0646973,0.0455933,
2566,0.0274658,0.0456726,
2568,0.0323486,0.0456238,
2570,-0.0695801,0.0453857,
2572,-0.0201416,0.0454529,
2574,0.0585938,0.045697,
2576,-0.0299072,0.0459106,
2578,-0.00244141,0.0458679,
2580,-0.0250244,0.0456177,
2582,-0.0402832,0.0459534,
2584,0.0292969,0.0458374,
2586,0.0292969,0.0460754,
2588,-0.0860596,0.0464111,
2590,0.0628662,0.0466431,
2592,0.0170898,0.0464478,
2594,-0.0842285,0.0466614,
2596,0.022583,0.0466675,
2598,-0.0415039,0.0466675,
2600,0.057373,0.0469055,
2602,0.020752,0.0465515,
2604,-0.125732,0.0465637,
2606,0.043335,0.0466553,
2608,0.0378418,0.0467468,
2610,-0.067749,0.0469543,
2612,0.0622559,0.0468689,
2614,-0.0616455,0.0467468,
2616,0.0311279,0.0467285,
2618,0.0274658,0.0465698,
2620,-0.0793457,0.0466736,
2622,-0.00488281,0.0466125,
2624,0.0396729,0.0466858,
2626,-0.0109863,0.0467407,
2628,-0.0158691,0.0467041,
2630,-0.0463867,0.0466797,
2632,-0.00427246,0.0465454,
2634,0.045166,0.0466675,
2636,0.0140381,0.0464661,
2638,-0.0964355,0.0465881,
2640,0.078125,0.0468079,
2642,0.0189209,0.0467407,
2644,-0.0512695,0.0463806,
2646,0.0286865,0.0463562,
2648,-0.0469971,0.0462036,
2650,0.0415039,0.04599,
2652,0.0268555,0.0460022,
2654,-0.090332,0.0457153,
2656,0.0152588,0.0454041,
2658,0.0213623,0.0452148,
2660,-0.0561523,0.0451355,
2662,0.0683594,0.044989,
2664,-0.0854492,0.0451172,
2666,0.0146484,0.0451233,
2668,0.0268555,0.044635,
2670,-0.057373,0.0443726,
2672,-0.0109863,0.0441772,
2674,0.0482178,0.0443176,
2676,-0.0268555,0.0445251,
2678,-0.012207,0.044635,
2680,-0.0262451,0.0443054,
2682,-0.0152588,0.0444458,
2684,0.0366211,0.0444275,
2686,0.0244141,0.0444641,
2688,-0.101318,0.0446411,
2690,0.0549316,0.0445618,
2692,0.032959,0.0445984,
2694,-0.0891113,0.0445862,
2696,0.0201416,0.0445557,
2698,-0.0366211,0.0442871,
2700,0.0250244,0.0440002,
2702,0.0408936,0.0440674,
2704,-0.112915,0.0440674,
2706,0.0421143,0.0442139,
2708,0.0213623,0.0441223,
2710,-0.0531006,0.0443359,
2712,0.067749,0.0442261,
2714,-0.0543213,0.0439758,
2716,0.0189209,0.0438904,
2718,0.0286865,0.0437378,
2720,-0.067749,0.0436096,
2722,-0.0164795,0.0436218,
2724,0.055542,0.0438293,
2726,-0.00732422,0.0438293,
2728,-0.0305176,0.0438721,
2730,-0.00915527,0.0435852,
2732,-0.00549316,0.0435608,
2734,0.0317383,0.0433228,
2736,0.0396729,0.0436523,
2738,-0.0964355,0.043866,
2740,0.0549316,0.043811,
2742,0.0354004,0.0438721,
2744,-0.0860596,0.0437744,
2746,0.0286865,0.04375,
2748,-0.0518799,0.0438354,
2750,0.0445557,0.0440369,
2752,0.0262451,0.0440125,
2754,-0.113525,0.0439148,
2756,0.03479,0.0436646,
2758,0.0280762,0.04375,
2760,-0.0543213,0.043634,
2762,0.0738525,0.043573,
2764,-0.0756836,0.0436829,
2766,0.00793457,0.0434875,
2768,0.0384521,0.0435486,
2770,-0.0726318,0.0435791,
2772,-0.0189209,0.0435669,
2774,0.0366211,0.0433472,
2776,-0.0299072,0.0433472,
2778,-0.0213623,0.0435364,
2780,-0.020752,0.0434937,
2782,-0.0231934,0.0433228,
2784,0.0482178,0.043512,
2786,-0.00305176,0.0432495,
2788,-0.0854492,0.0432434,
2790,0.0579834,0.0431946,
2792,0.0360107,0.0433838,
2794,-0.0836182,0.0433777,
2796,0.045166,0.0436035,
2798,-0.0195313,0.0433838,
2800,0.0286865,0.0430969,
2802,0.0469971,0.0433594,
2804,-0.12207,0.0433228,
2806,0.0427246,0.0433167,
2808,0.020752,0.0431458,
2810,-0.0793457,0.0432617,
2812,0.0701904,0.0433411,
2814,-0.0860596,0.0435852,
2816,0.032959,0.0436035,
2818,0.010376,0.0434326,
2820,-0.0683594,0.0433228,
2822,-0.0183105,0.043457,
2824,0.0457764,0.0435181,
2826,-0.00915527,0.0434998,
2828,-0.00610352,0.0434021,
2830,-0.0500488,0.0434387,
2832,-0.03479,0.0437439,
2834,0.0567627,0.0438599,
2836,0.0244141,0.0439636,
2838,-0.100708,0.0440063,
2840,0.0537109,0.0437622,
2842,0.0341797,0.0439148,
2844,-0.090332,0.0443054,
2846,0.0372314,0.0443909,
2848,-0.065918,0.0445801,
2850,0.0598145,0.0447632,
2852,0.0305176,0.0447998,
2854,-0.133667,0.0452332,
2856,0.0415039,0.0454956,
2858,0.0280762,0.0455627,
2860,-0.0738525,0.0457397,
2862,0.0769043,0.0458252,
2864,-0.0689697,0.0456604,
2866,0.0134277,0.0456482,
2868,0.0384521,0.0457642,
2870,-0.0579834,0.0457703,
2872,-0.0317383,0.0459778,
2874,0.0494385,0.04599,
2876,-0.0231934,0.0459534,
2878,-0.0164795,0.0459961,
2880,-0.0250244,0.0459839,
2882,-0.0244141,0.0460754,
2884,0.0476074,0.0461853,
2886,0.03479,0.0462891,
2888,-0.0805664,0.0460815,
2890,0.055542,0.0460876,
2892,0.0244141,0.0460022,
2894,-0.0799561,0.0459106,
2896,0.0622559,0.0463318,
2898,-0.0634766,0.0466003,
2900,0.0482178,0.0468323,
2902,0.0280762,0.0467041,
2904,-0.147095,0.0470459,
2906,0.0396729,0.0470215,
2908,0.0378418,0.0471863,
2910,-0.0671387,0.0473267,
2912,0.0616455,0.0472656,
2914,-0.0701904,0.0474243,
2916,0.00915527,0.0473267,
2918,0.0384521,0.0474243,
2920,-0.0646973,0.0473938,
2922,-0.0219727,0.0474487,
2924,0.055542,0.0474487,
2926,0.012207,0.0474976,
2928,-0.022583,0.0474182,
2930,-0.043335,0.04776,
2932,-0.00183105,0.0477234,
2934,0.0610352,0.0480164,
2936,0.0366211,0.0479858,
2938,-0.12146,0.0482361,
2940,0.0610352,0.0482971,
2942,0.0341797,0.0482849,
2944,-0.0915527,0.0483398,
2946,0.0561523,0.0486145,
2948,-0.065918,0.0487549,
2950,0.0305176,0.0486145,
2952,0.0445557,0.0487976,
2954,-0.10498,0.0487122,
2956,0.0305176,0.0486694,
2958,0.0457764,0.0488464,
2960,-0.0500488,0.0488037,
2962,0.0579834,0.048645,
2964,-0.0616455,0.0485046,
2966,0.0170898,0.0485962,
2968,0.0372314,0.048584,
2970,-0.0653076,0.0485107,
2972,-0.0213623,0.0485352,
2974,0.0164795,0.0483337,
2976,-0.00671387,0.0481018,
2978,-0.010376,0.0479919,
2980,-0.0427246,0.0482117,
2982,-0.0366211,0.0483459,
2984,0.0396729,0.0482605,
2986,0.032959,0.0485596,
2988,-0.0952148,0.0486572,
2990,0.0543213,0.0486206,
2992,0.0231934,0.0484924,
2994,-0.0775146,0.0484314,
2996,0.043335,0.0484131,
2998,-0.0384521,0.0486023,
3000,0.0396729,0.0487122,
3002,0.0201416,0.0484436,
3004,-0.108643,0.0483093,
3006,0.0305176,0.0481873,
3008,0.0219727,0.0481995,
3010,-0.0616455,0.0480225,
3012,0.0537109,0.0478577,
3014,-0.057373,0.0475708,
3016,0.022583,0.047467,
3018,0.0408936,0.0477722,
3020,-0.0482178,0.0475708,
3022,-0.0415039,0.0478027,
3024,0.0579834,0.0479248,
3026,0.0158691,0.0479919,
3028,-0.020752,0.0481384,
3030,-0.0402832,0.0480408,
3032,-0.0140381,0.0478333,
3034,0.03479,0.0476135,
3036,0.0311279,0.0476807,
3038,-0.0854492,0.0475281,
3040,0.0726318,0.0477173,
3042,0.0177002,0.0475525,
3044,-0.0866699,0.0475159,
3046,0.0793457,0.047937,
3048,-0.0744629,0.0480225,
3050,0.0512695,0.047937,
3052,0.0244141,0.047876,
3054,-0.10437,0.047583,
3056,0.0262451,0.0474304,
3058,0.0469971,0.0476196,
3060,-0.0701904,0.047583,
3062,0.0769043,0.047583,
3064,-0.0762939,0.0476562,
3066,0.0427246,0.0479492,
3068,0.0567627,0.0481323,
3070,-0.0970459,0.0485229,
3072,-0.010376,0.0483093,
3074,0.0482178,0.0482971,
3076,-0.00427246,0.0481079,
3078,-0.0354004,0.0482971,
3080,-0.0500488,0.0485474,
3082,-0.0262451,0.0485657,
3084,0.0201416,0.048291,
3086,0.0354004,0.0482971,
3088,-0.112305,0.0486145,
3090,0.0817871,0.048877,
3092,0.0292969,0.0489258,
3094,-0.0976563,0.0491028,
3096,0.0604248,0.0490845,
3098,-0.045166,0.0489014,
3100,0.0396729,0.0488159,
3102,0.0262451,0.0487976,
3104,-0.108643,0.0484131,
3106,0.0164795,0.0481812,
3108,0.0292969,0.0480957,
3110,-0.0543213,0.0479675,
3112,0.0714111,0.0480652,
3114,-0.0646973,0.0480103,
3116,0.0152588,0.0480713,
3118,0.0378418,0.0480652,
3120,-0.0531006,0.0479492,
3122,-0.0360107,0.0480896,
3124,0.0439453,0.0479736,
3126,-0.00427246,0.0478943,
3128,-0.0274658,0.0479431,
3130,-0.0262451,0.0477722,
3132,-0.0213623,0.0479675,
3134,0.0463867,0.047821,
3136,0.0311279,0.0477661,
3138,-0.127563,0.0478271,
3140,0.0665283,0.0478821,
3142,0.0463867,0.0480042,
3144,-0.090332,0.0479919,
3146,0.045166,0.0478821,
3148,-0.0799561,0.0480225,
3150,0.0421143,0.0481384,
3152,0.0531006,0.0482239,
3154,-0.128174,0.0484558,
3156,0.0292969,0.0484436,
3158,0.0500488,0.0484863,
3160,-0.067749,0.0486633,
3162,0.0915527,0.048999,
3164,-0.0634766,0.0490173,
3166,-0.000610352,0.0488525,
3168,0.0384521,0.0488647,
3170,-0.0463867,0.0486755,
3172,-0.0531006,0.0489929,
3174,0.0543213,0.0493713,
3176,0.00915527,0.0493958,
3178,-0.0396729,0.0496887,
3180,-0.0354004,0.0496155,
3182,-0.0195313,0.0494446,
3184,0.0439453,0.0494873,
3186,0.0262451,0.0494202,
3188,-0.0872803,0.0493408,
3190,0.0561523,0.0493591,
3192,0.0268555,0.0493958,
3194,-0.100708,0.0496277,
3196,0.0524902,0.0497192,
3198,-0.0653076,0.0499878,
3200,0.0488281,0.0500793,
3202,0.0256348,0.0501343,
3204,-0.114136,0.0501892,
3206,0.0354004,0.050238,
3208,0.0402832,0.0504211,
3210,-0.0622559,0.0504272,
3212,0.0726318,0.0506165,
3214,-0.0683594,0.0507263,
3216,0.0177002,0.0506775,
3218,0.0469971,0.0507385,
3220,-0.067749,0.0509338,
3222,-0.0341797,0.0508606,
3224,0.0354004,0.0506348,
3226,-0.00427246,0.0505188,
3228,-0.00793457,0.0503906,
3230,-0.0256348,0.0502441,
3232,-0.045166,0.0505554,
3234,0.0402832,0.0506104,
3236,0.0518799,0.0508179,
3238,-0.108032,0.0510437,
3240,0.0549316,0.0508667,
3242,0.0170898,0.0508606,
3244,-0.0891113,0.050885,
3246,0.0561523,0.0506531,
3248,-0.0738525,0.050647,
3250,0.0323486,0.0504578,
3252,0.0140381,0.050354,
3254,-0.0994873,0.0503052,
3256,0.0366211,0.0504089,
3258,0.0268555,0.0502075,
3260,-0.0592041,0.0500977,
3262,0.0543213,0.0498718,
3264,-0.0537109,0.049646,
3266,0.0170898,0.0493896,
3268,0.045166,0.0492737,
3270,-0.0689697,0.0489929,
3272,-0.0378418,0.0492676,
3274,0.0512695,0.0492981,
3276,0.00976563,0.049353,
3278,-0.03479,0.0493469,
3280,-0.0244141,0.0490906,
3282,-0.0134277,0.0489624,
3284,0.0408936,0.0491699,
3286,0.0421143,0.0492371,
3288,-0.103149,0.0491455,
3290,0.0671387,0.048999,
3292,0.0445557,0.0491516,
3294,-0.101318,0.0491882,
3296,0.0561523,0.0491455,
3298,-0.0567627,0.0492615,
3300,0.0671387,0.0495361,
3302,0.020752,0.0494812,
3304,-0.134277,0.0497375,
3306,0.0488281,0.050061,
3308,0.0299072,0.0500671,
3310,-0.045166,0.0499756,
3312,0.0634766,0.0498962,
3314,-0.057373,0.049823,
3316,0.0109863,0.0497803,
3318,0.0109863,0.0495117,
3320,-0.0335693,0.0493164,
3322,-0.022583,0.0491821,
3324,0.0311279,0.049054,
3326,0.00183105,0.0490295,
3328,-0.0421143,0.049176,
3330,-0.020752,0.0491211,
3332,-0.0292969,0.0492004,
3334,0.0775146,0.0495117,
3336,0.0140381,0.0493408,
3338,-0.120239,0.0492676,
3340,0.0689697,0.049292,
3342,0.0317383,0.0491455,
3344,-0.0811768,0.049054,
3346,0.0494385,0.0490967,
3348,-0.0695801,0.0489929,
3350,0.0488281,0.0490601,
3352,0.0286865,0.0488159,
3354,-0.10437,0.0485779,
3356,0.0256348,0.0485413,
3358,0.0274658,0.0483154,
3360,-0.0415039,0.048053,
3362,0.0708008,0.0478455,
3364,-0.0512695,0.0477234,
3366,-0.00305176,0.0477478,
3368,0.0463867,0.0478271,
3370,-0.0268555,0.0476318,
3372,-0.0292969,0.0473938,
3374,0.0372314,0.0472229,
3376,0.00244141,0.0471558,
3378,-0.0378418,0.0471375,
3380,-0.0280762,0.0470642,
3382,-0.0268555,0.0471375,
3384,0.0341797,0.0470398,
3386,0.0323486,0.0471008,
3388,-0.110474,0.0473328,
3390,0.0567627,0.0473389,
3392,0.0366211,0.0474365,
3394,-0.0695801,0.0471252,
3396,0.0494385,0.0470947,
3398,-0.0598145,0.0470398,
3400,0.0506592,0.0470581,
3402,0.0335693,0.0471375,
3404,-0.130005,0.0472961,
3406,0.0256348,0.0471985,
3408,0.0286865,0.0470825,
3410,-0.0579834,0.0470398,
3412,0.0506592,0.0468201,
3414,-0.0640869,0.0467773,
3416,-0.00244141,0.0466248,
3418,0.0384521,0.0465393,
3420,-0.0201416,0.0460632,
3422,-0.0518799,0.0462402,
3424,0.0463867,0.0463501,
3426,0.022583,0.0465332,
3428,-0.0439453,0.0468933,
3430,-0.0115967,0.0467529,
3432,-0.0280762,0.046582,
3434,0.0482178,0.0466614,
3436,0.0231934,0.0463745,
3438,-0.116577,0.04646,
3440,0.0610352,0.046521,
3442,0.0512695,0.0468628,
3444,-0.0793457,0.0467651,
3446,0.0415039,0.0466187,
3448,-0.065918,0.0465393,
3450,0.0408936,0.0466248,
3452,0.0372314,0.0468567,
3454,-0.109253,0.0469543,
3456,0.0170898,0.046759,
3458,0.0256348,0.0467468,
3460,-0.0488281,0.0466431,
3462,0.0537109,0.046637,
3464,-0.0701904,0.0468018,
3466,0.0134277,0.0467651,
3468,0.0732422,0.0470459,
3470,-0.0616455,0.0469727,
3472,-0.0579834,0.0471741,
3474,0.0622559,0.0472839,
3476,-0.0109863,0.0472961,
3478,-0.03479,0.0472961,
3480,-0.0274658,0.0473267,
3482,-0.0421143,0.0476135,
3484,0.045166,0.0476562,
3486,0.0250244,0.0474854,
3488,-0.103149,0.0474854,
3490,0.0439453,0.0472534,
3492,0.0390625,0.0471985,
3494,-0.0921631,0.0471069,
3496,0.0750732,0.0472961,
3498,-0.0708008,0.0474365,
3500,0.0415039,0.0471802,
3502,0.0396729,0.0473694,
3504,-0.0854492,0.0468811,
3506,-0.00244141,0.0464172,
3508,0.0531006,0.0466492,
3510,-0.0457764,0.0466553,
3512,0.0537109,0.0465576,
3514,-0.0653076,0.046637,
3516,0.00793457,0.0466064,
3518,0.0292969,0.0467896,
3520,-0.0384521,0.0468384,
3522,-0.0506592,0.0471191,
3524,0.0537109,0.047345,
3526,0.00488281,0.0473755,
3528,-0.057373,0.0475281,
3530,-0.00732422,0.0473938,
3532,-0.0366211,0.047467,
3534,0.0482178,0.0471741,
3536,0.0396729,0.0474304,
3538,-0.119019,0.0474182,
3540,0.067749,0.047406,
3542,0.0396729,0.0474854,
3544,-0.0738525,0.0474121,
3546,0.0811768,0.0477295,
3548,-0.0769043,0.0478027,
3550,0.0317383,0.0476318,
3552,0.0616455,0.0479614,
3554,-0.0994873,0.0479126,
3556,0.0128174,0.0477844,
3558,0.0317383,0.0478271,
3560,-0.0457764,0.0478699,
3562,0.0646973,0.0478088,
3564,-0.043335,0.0477295,
3566,-0.0152588,0.0478516,
3568,0.0402832,0.0477905,
3570,-0.00915527,0.0476135,
3572,-0.0463867,0.0477844,
3574,0.043335,0.0478455,
3576,0.012207,0.0479431,
3578,-0.0482178,0.0480469,
3580,-0.0134277,0.0479004,
3582,-0.0268555,0.0479004,
3584,0.0421143,0.0479797,
3586,0.0695801,0.0483521,
3588,-0.144043,0.0486877,
3590,0.0738525,0.0488586,
3592,0.0531006,0.0490234,
3594,-0.0909424,0.0492371,
3596,0.0372314,0.049115,
3598,-0.0280762,0.0487976,
3600,0.0372314,0.0486633,
3602,0.012207,0.0484497,
3604,-0.0872803,0.0480225,
3606,0.0201416,0.0479675,
3608,0.0244141,0.0479248,
3610,-0.0396729,0.0477417,
3612,0.0683594,0.0479187,
3614,-0.0622559,0.0479004,
3616,0.0012207,0.0478882,
3618,0.0305176,0.0478088,
3620,-0.0274658,0.0478821,
3622,-0.0378418,0.0477417,
3624,0.0482178,0.04776,
3626,0.00671387,0.0476013,
3628,-0.0396729,0.0475586,
3630,-0.00793457,0.047522,
3632,-0.0299072,0.0475403,
3634,0.0482178,0.0475403,
3636,0.0463867,0.0477722,
3638,-0.131836,0.0479248,
3640,0.0732422,0.0480469,
3642,0.03479,0.0478821,
3644,-0.0787354,0.047876,
3646,0.0750732,0.0482117,
3648,-0.0701904,0.0482544,
3650,0.0274658,0.0481201,
3652,0.0323486,0.0480713,
3654,-0.109253,0.0480713,
3656,0.0140381,0.0480408,
3658,0.0317383,0.0481018,
3660,-0.0482178,0.0480957,
3662,0.0506592,0.0480652,
3664,-0.0634766,0.047998,
3666,0.00915527,0.0479553,
3668,0.0360107,0.047583,
3670,0.000610352,0.0469727,
3672,-0.0775146,0.047168,
3674,0.0543213,0.0470886,
3676,0.032959,0.0473083,
3678,-0.0567627,0.0475281,
3680,-0.0219727,0.0474731,
3682,-0.00366211,0.0470886,
3684,0.0305176,0.0469421,
3686,0.0274658,0.0469666,
3688,-0.126343,0.0471985,
3690,0.0720215,0.0474792,
3692,0.043335,0.047522,
3694,-0.098877,0.0475891,
3696,0.0524902,0.0473633,
3698,-0.0732422,0.0473877,
3700,0.03479,0.0473206,
3702,0.0366211,0.04729,
3704,-0.109253,0.0475281,
3706,0.0115967,0.0476196,
3708,0.0390625,0.0474792,
3710,-0.0427246,0.0474487,
3712,0.0500488,0.0474121,
3714,-0.0646973,0.047406,
3716,0.0195313,0.047522,
3718,0.012207,0.0473511,
3720,-0.0341797,0.0473083,
3722,-0.0341797,0.0471436,
3724,0.0720215,0.0473267,
3726,-0.0292969,0.0475708,
3728,-0.0732422,0.0477295,
3730,0.00244141,0.0476807,
3732,-0.0335693,0.0476501,
3734,0.0396729,0.0475647,
3736,0.0274658,0.0474426,
3738,-0.126953,0.047522,
3740,0.0512695,0.0473572,
3742,0.012207,0.0470825,
3744,-0.0708008,0.047052,
3746,0.0762939,0.0470032,
3748,-0.065918,0.0468933,
3750,0.0567627,0.0471436,
3752,0.0262451,0.0467896,
3754,-0.110474,0.0468994,
3756,0.0366211,0.0471375,
3758,0.0476074,0.0472961,
3760,-0.0653076,0.0474915,
3762,0.0665283,0.0475098,
3764,-0.0860596,0.047937,
3766,0.00305176,0.0478149,
3768,0.0488281,0.0479004,
3770,-0.0354004,0.0481628,
3772,-0.0549316,0.0482483,
3774,0.0671387,0.0484863,
3776,0.00732422,0.0484375,
3778,-0.0640869,0.0485962,
3780,-0.000610352,0.048468,
3782,-0.0341797,0.0485413,
3784,0.0494385,0.0486145,
3786,0.0408936,0.0483276,
3788,-0.140381,0.048291,
3790,0.0750732,0.0483032,
3792,0.0384521,0.0481567,
3794,-0.0878906,0.0481262,
3796,0.0628662,0.0483826,
3798,-0.0561523,0.0486633,
3800,0.0268555,0.0485596,
3802,0.0421143,0.0488586,
3804,-0.0915527,0.0489014,
3806,0.0109863,0.0488098,
3808,0.0280762,0.0488464,
3810,-0.0366211,0.0488159,
3812,0.0372314,0.0485046,
3814,-0.0524902,0.048407,
3816,0.00244141,0.0484192,
3818,0.0463867,0.0485779,
3820,-0.0305176,0.0486084,
3822,-0.0482178,0.0487122,
3824,0.0549316,0.0487793,
3826,-0.000610352,0.0487183,
3828,-0.0360107,0.0486816,
3830,-0.0183105,0.0487854,
3832,-0.0335693,0.048822,
3834,0.0390625,0.0487305,
3836,0.00488281,0.0483154,
3838,-0.109253,0.0480896,
3840,0.055542,0.0479126,
3842,0.00976563,0.0476624,
3844,-0.0933838,0.0478088,
3846,0.0909424,0.0479675,
3848,-0.0708008,0.0479736,
3850,0.0292969,0.0479919,
3852,0.0164795,0.0478333,
3854,-0.102539,0.0477661,
3856,0.0134277,0.04776,
3858,0.0378418,0.047821,
3860,-0.0720215,0.0480591,
3862,0.0494385,0.0480469,
3864,-0.0701904,0.048114,
3866,0.000610352,0.0480286,
3868,0.0305176,0.0479736,
3870,-0.0146484,0.048114,
3872,-0.0476074,0.0478149,
3874,0.0537109,0.0478088,
3876,-0.00366211,0.0475159,
3878,-0.0616455,0.0475647,
3880,0.00244141,0.0473694,
3882,-0.0561523,0.0478943,
3884,0.0744629,0.0483337,
3886,0.0518799,0.0485779,
3888,-0.159302,0.0489075,
3890,0.0646973,0.0488342,
3892,0.0427246,0.0488281,
3894,-0.0848389,0.0486877,
3896,0.0604248,0.0487671,
3898,-0.0714111,0.0487488,
3900,0.0372314,0.0487732,
3902,0.00671387,0.0484741,
3904,-0.12207,0.0486023,
3906,0.0341797,0.0488281,
3908,0.0286865,0.0487244,
3910,-0.0378418,0.0486755,
3912,0.0469971,0.048645,
3914,-0.0543213,0.0485413,
3916,0.00366211,0.0483826,
3918,0.0366211,0.0486267,
3920,-0.00732422,0.0483582,
3922,-0.0665283,0.0486816,
3924,0.0665283,0.0486267,
3926,0.0195313,0.0485291,
3928,-0.0714111,0.0485107,
3930,-0.000610352,0.0484924,
3932,-0.0378418,0.0485352,
3934,0.0463867,0.0486023,
3936,0.0311279,0.0486389,
3938,-0.106812,0.0484375,
3940,0.0476074,0.0484009,
3942,0.0415039,0.0486938,
3944,-0.0799561,0.0487854,
3946,0.0775146,0.0487976,
3948,-0.0683594,0.048822,
3950,0.0201416,0.0484558,
3952,0.0494385,0.0486877,
3954,-0.0970459,0.0485535,
3956,-0.0115967,0.0483032,
3958,0.0378418,0.0482056,
3960,-0.0280762,0.0478333,
3962,0.0488281,0.0476562,
3964,-0.0366211,0.0471619,
3966,0.0219727,0.0473511,
3968,0.0622559,0.0474854,
3970,-0.0384521,0.0475159,
3972,-0.0384521,0.0473511,
3974,0.0708008,0.0473877,
3976,0.0115967,0.0474304,
3978,-0.078125,0.0475708,
3980,-0.00732422,0.0476379,
3982,-0.0561523,0.0478577,
3984,0.0378418,0.0477417,
3986,0.0244141,0.0475769,
3988,-0.0915527,0.0470886,
3990,0.0561523,0.0468994,
3992,0.0335693,0.0468506,
3994,-0.0830078,0.0468018,
3996,0.0915527,0.0470886,
3998,-0.0750732,0.0472778,
4000,0.0537109,0.0475464,
4002,0.0128174,0.0472534,
4004,-0.0927734,0.0472656,
4006,0.00488281,0.0472046,
4008,0.0286865,0.0472107,
4010,-0.0506592,0.0473511,
4012,0.0421143,0.0473999,
4014,-0.0610352,0.0474854,
4016,-0.0012207,0.0474731,
4018,0.0335693,0.047345,
4020,-0.00976563,0.0471375,
4022,-0.0543213,0.0471985,
4024,0.0524902,0.0471741,
4026,0.0183105,0.0473511,
4028,-0.0622559,0.0476135,
4030,-0.00183105,0.0474487,
4032,-0.0482178,0.0475952,
4034,0.0408936,0.0476135,
4036,0.0256348,0.047821,
4038,-0.128174,0.0480103,
4040,0.0567627,0.0480225,
4042,0.0262451,0.0481873,
4044,-0.0701904,0.0479553,
4046,0.0811768,0.0478577,
4048,-0.0683594,0.0478333,
4050,0.0274658,0.0478149,
4052,0.0390625,0.0480408,
4054,-0.108643,0.0481018,
4056,0.0152588,0.0481201,
4058,0.0286865,0.0480286,
4060,-0.0305176,0.0476135,
4062,0.0384521,0.0475037,
4064,-0.0769043,0.0475708,
4066,-0.00244141,0.0475891,
4068,0.0335693,0.0476196,
4070,-0.0146484,0.0476196,
4072,-0.0531006,0.0476746,
4074,0.045166,0.0475891,
4076,0.0115967,0.0476685,
4078,-0.0750732,0.0478027,
4080,0.010376,0.0478821,
4082,-0.0354004,0.0476746,
4084,0.0854492,0.0477844,
4086,0.00366211,0.0473022,
4088,-0.115356,0.0468628,
4090,0.067749,0.0468933,
4092,0.0341797,0.0468079,
4094,-0.0842285,0.0468018,
4096,0.0524902,0.0467224,
4098,-0.0518799,0.0465271,
4100,0.0183105,0.0463379,
4102,0.0189209,0.04646,
4104,-0.0671387,0.0459106,
4106,0.000610352,0.045575,
4108,0.0158691,0.0454468,
4110,-0.0469971,0.0455383,
4112,0.0488281,0.0455566,
4114,-0.0463867,0.0454773,
4116,-0.00366211,0.0454773,
4118,-0.00793457,0.0451904,
4120,-0.0231934,0.0453491,
4122,-0.0146484,0.0448303,
4124,0.0354004,0.044519,
4126,0.0195313,0.044519,
4128,-0.0494385,0.0442993,
4130,-0.0317383,0.0446106,
4132,-0.0579834,0.044812,
4134,0.101929,0.0453674,
4136,0.0201416,0.0452576,
4138,-0.137329,0.0455627,
4140,0.0494385,0.0455811,
4142,0.0299072,0.0454651,
4144,-0.0830078,0.0454956,
4146,0.0415039,0.0451355,
4148,-0.0622559,0.0450745,
4150,0.0524902,0.0453979,
4152,-0.00183105,0.0449219,
4154,-0.12146,0.045166,
4156,0.00854492,0.0451355,
4158,0.0445557,0.0452026,
4160,-0.045166,0.0453735,
4162,0.0421143,0.0453064,
4164,-0.0982666,0.0459229,
4166,0.000610352,0.0457092,
4168,0.0469971,0.0455566,
4170,-0.0427246,0.0455994,
4172,-0.0915527,0.0461304,
4174,0.114136,0.0465637,
4176,-0.00976563,0.0465454,
4178,-0.0866699,0.0466309,
4180,-0.0115967,0.0466736,
4182,-0.0274658,0.0463867,
4184,0.0549316,0.0465576,
4186,0.0390625,0.0467041,
4188,-0.171509,0.0475037,
4190,0.0366211,0.0473083,
4192,0.0476074,0.0474487,
4194,-0.0982666,0.0476013,
4196,0.0646973,0.0473328,
4198,-0.117798,0.04776,
4200,0.0195313,0.0474182,
4202,0.0354004,0.047644,
4204,-0.103149,0.0477478,
4206,-0.0183105,0.0478821,
4208,0.00915527,0.0476868,
4210,-0.0750732,0.0479309,
4212,0.0811768,0.0483215,
4214,-0.0354004,0.0480652,
4216,-0.0482178,0.0485352,
4218,-0.0756836,0.0489563,
4220,0.0415039,0.0492737,
4222,0.00183105,0.0487488,
4224,-0.0408936,0.0486328,
4226,0.00366211,0.0484863,
4228,-0.0567627,0.0484314,
4230,-0.0372314,0.0487854,
4232,-0.0311279,0.0486145,
4234,0.0109863,0.0483154,
4236,0.0549316,0.0486084,
4238,-0.130615,0.0486328,
4240,0.0756836,0.048822,
4242,0.0402832,0.0489624,
4244,-0.0878906,0.0491394,
4246,0.157471,0.0499023,
4248,-0.0134277,0.049353,
4250,0.0408936,0.0494873,
4252,0.0500488,0.0495972,
4254,-0.164185,0.0501526,
4256,0.0201416,0.0502014,
4258,0.00671387,0.0499817,
4260,-0.0769043,0.0504456,
4262,-0.0390625,0.0504517,
4264,-0.0939941,0.0506226,
4266,-0.0537109,0.0511353,
4268,0.0299072,0.0510986,
4270,0.0146484,0.0510986,
4272,-0.0750732,0.0513184,
4274,0.0543213,0.0514099,
4276,0.0494385,0.0517883,
4278,-0.10376,0.0520752,
4280,-0.0012207,0.0519836,
4282,-0.0976563,0.0526062,
4284,0.0579834,0.0523315,
4286,0.0305176,0.0526001,
4288,-0.154419,0.0529907,
4290,0.0762939,0.0530762,
4292,0.0286865,0.0530212,
4294,-0.0701904,0.0528809,
4296,0.116577,0.0535217,
4298,-0.0158691,0.0531616,
4300,0.105591,0.0540344,
4302,-0.00244141,0.0538696,
4304,-0.0653076,0.0538513,
4306,0.0109863,0.0539551,
4308,0.0469971,0.0542664,
4310,-0.0482178,0.0542786,
4312,-0.0140381,0.0539307,
4314,-0.0726318,0.0541931,
4316,-0.0488281,0.0546448,
4318,0.0372314,0.0549377,
4320,0.0360107,0.0550659,
4322,-0.106812,0.0559875,
4324,0.0671387,0.0563049,
4326,0.03479,0.0564575,
4328,-0.0524902,0.056488,
4330,0.00183105,0.056189,
4332,-0.0457764,0.0560669,
4334,0.0939941,0.0559875,
4336,0.00854492,0.0558716,
4338,-0.115967,0.055658,
4340,0.0518799,0.0556824,
4342,0.0317383,0.0557007,
4344,-0.0549316,0.0554199,
4346,0.0720215,0.0557251,
4348,-0.0726318,0.0558289,
4350,0.0488281,0.0557922,
4352,0.0354004,0.0561279,
4354,-0.102539,0.0559387,
4356,0.00610352,0.0559143,
4358,0.0695801,0.0561646,
4360,-0.00671387,0.05578,
4362,0.00366211,0.0553955,
4364,-0.0524902,0.0549377,
4366,-0.010376,0.0550354,
4368,0.0476074,0.0550415,
4370,0.0219727,0.054834,
4372,-0.0683594,0.0546021,
4374,0.0537109,0.0539978,
4376,0.020752,0.0541077,
4378,-0.0817871,0.0540588,
4380,-0.00305176,0.0539734,
4382,-0.0244141,0.0539429,
4384,0.0610352,0.0540039,
4386,0.0213623,0.0538269,
4388,-0.108643,0.0531982,
4390,0.0341797,0.0531738,
4392,0.0518799,0.0532166,
4394,-0.0317383,0.0525513,
4396,0.0909424,0.0528137,
4398,-0.10376,0.0526733,
4400,0.0531006,0.053009,
4402,0.0274658,0.0529297,
4404,-0.0830078,0.0527283,
4406,-0.0244141,0.0527893,
4408,0.0695801,0.0533936,
4410,-0.0421143,0.053064,
4412,0.0134277,0.0523865,
4414,-0.0341797,0.0523743,
4416,0.0195313,0.0520874,
4418,0.0439453,0.05177,
4420,-0.00488281,0.0514038,
4422,-0.0683594,0.0520691,
4424,0.0585938,0.0522461,
4426,0.0360107,0.0525696,
4428,-0.0817871,0.0528198,
4430,0.03479,0.0527954,
4432,-0.0592041,0.0530762,
4434,0.0128174,0.0530945,
4436,0.0500488,0.0530457,
4438,-0.10376,0.0527771,
4440,0.0427246,0.0524475,
4442,0.0164795,0.0522095,
4444,-0.0744629,0.0520752,
4446,0.0640869,0.0511414,
4448,-0.0811768,0.0518188,
4450,0.0366211,0.0517761,
4452,0.0311279,0.0515869,
4454,-0.0927734,0.0508728,
4456,-0.00976563,0.050769,
4458,0.0744629,0.0514465,
4460,-0.0531006,0.0512085,
4462,0.0469971,0.0512878,
4464,-0.078125,0.0511292,
4466,-0.0134277,0.0507263,
4468,0.0390625,0.0508179,
4470,0.00732422,0.0507446,
4472,-0.0695801,0.0506897,
4474,0.0372314,0.0505188,
4476,0.0408936,0.0504333,
4478,-0.0726318,0.0501221,
4480,0.0354004,0.0504639,
4482,-0.032959,0.0498169,
4484,0.0134277,0.0493713,
4486,0.0646973,0.0497131,
4488,-0.119019,0.0493591,
4490,0.0335693,0.0489319,
4492,0.0256348,0.0489014,
4494,-0.0836182,0.0490356,
4496,0.078125,0.0486511,
4498,-0.0567627,0.0490601,
4500,0.0146484,0.0481506,
4502,0.0506592,0.0486328,
4504,-0.0909424,0.0488892,
4506,-0.00976563,0.048877,
4508,0.057373,0.0489807,
4510,-0.00366211,0.0485352,
4512,-0.0134277,0.0485291,
4514,-0.0213623,0.0480164,
4516,-0.0323486,0.0478516,
4518,0.0500488,0.0479797,
4520,0.00854492,0.0477051,
4522,-0.043335,0.0470703,
4524,0.032959,0.0467285,
4526,0.0354004,0.0467346,
4528,-0.0769043,0.0469788,
4530,0.0305176,0.0472656,
4532,-0.0476074,0.0472839,
4534,0.0860596,0.0472046,
4536,0.0183105,0.0473022,
4538,-0.115967,0.0473022,
4540,0.0640869,0.0474243,
4542,0.0598145,0.0477051,
4544,-0.0756836,0.0479126,
4546,0.0860596,0.048053,
4548,-0.0775146,0.0481018,
4550,0.0384521,0.047998,
4552,0.0860596,0.0485046,
4554,-0.0891113,0.0483704,
4556,-0.0231934,0.0485413,
4558,0.0299072,0.0481445,
4560,-0.0323486,0.0484009,
4562,0.00793457,0.0484436,
4564,-0.0335693,0.0482544,
4566,-0.0402832,0.0485535,
4568,0.0354004,0.0484314,
4570,-0.012207,0.0483337,
4572,-0.0567627,0.0482178,
4574,0.0701904,0.0483826,
4576,0.00793457,0.0482544,
4578,-0.0708008,0.0481445,
4580,0.0268555,0.0483826,
4582,-0.0891113,0.0490295,
4584,0.0848389,0.0492676,
4586,0.0494385,0.0495483,
4588,-0.123901,0.0497009,
4590,0.0494385,0.0498535,
4592,0.0469971,0.0498047,
4594,-0.0549316,0.0500366,
4596,0.0909424,0.0500366,
4598,-0.0689697,0.0496887,
4600,0.043335,0.0495911,
4602,0.0146484,0.0494629,
4604,-0.10437,0.0496765,
4606,-0.00976563,0.04953,
4608,0.067749,0.0495117,
4610,-0.0274658,0.0493652,
4612,-0.010376,0.0493347,
4614,-0.0421143,0.0494141,
4616,0.000610352,0.0492249,
4618,0.0457764,0.0492432,
4620,0.0177002,0.0493713,
4622,-0.0952148,0.0496399,
4624,0.0561523,0.0496155,
4626,0.0518799,0.0497742,
4628,-0.0915527,0.0498718,
4630,-0.0183105,0.049707,
4632,-0.0408936,0.0495239,
4634,0.0640869,0.0500366,
4636,0.0390625,0.0499268,
4638,-0.134277,0.0502319,
4640,0.0469971,0.0502747,
4642,0.0335693,0.0504456,
4644,-0.0250244,0.0499512,
4646,0.0244141,0.0495544,
4648,-0.0427246,0.0491699,
4650,0.0531006,0.0493347,
4652,0.0213623,0.0492371,
4654,-0.0769043,0.0490784,
4656,-0.0146484,0.0491272,
4658,0.0341797,0.0487244,
4660,-0.0244141,0.0484375,
4662,-0.0164795,0.0481323,
4664,-0.0439453,0.0477905,
4666,-0.00976563,0.0477539,
4668,0.0524902,0.0478882,
4670,-0.0109863,0.0479248,
4672,-0.107422,0.0483032,
4674,0.0756836,0.0486877,
4676,0.0317383,0.0485962,
4678,-0.0823975,0.0486938,
4680,0.0579834,0.0489197,
4682,-0.0640869,0.049231,
4684,0.012207,0.0492187,
4686,0.0653076,0.0492249,
4688,-0.136719,0.0494019,
4690,0.0653076,0.0497192,
4692,0.0427246,0.0498901,
4694,-0.0891113,0.0499451,
4696,0.0598145,0.049762,
4698,-0.0793457,0.0499878,
4700,0.022583,0.0500671,
4702,0.0775146,0.0503357,
4704,-0.117188,0.0505981,
4706,-0.0402832,0.0509033,
4708,0.055542,0.050885,
4710,-0.0256348,0.0511047,
4712,0.00854492,0.0510559,
4714,-0.0775146,0.0516174,
4716,0.0177002,0.0514709,
4718,0.0402832,0.0513733,
4720,0.00183105,0.0513062,
4722,-0.0836182,0.051709,
4724,0.0616455,0.0519958,
4726,0.00915527,0.0517334,
4728,-0.0775146,0.0517395,
4730,0.0195313,0.0516296,
4732,-0.0628662,0.0517822,
4734,0.0396729,0.0513184,
4736,0.0390625,0.0515259,
4738,-0.133057,0.0516968,
4740,0.0695801,0.0517517,
4742,0.0268555,0.0514221,
4744,-0.0482178,0.0511475,
4746,0.0610352,0.0508972,
4748,-0.0543213,0.0506653,
4750,0.0384521,0.0506653,
4752,0.0402832,0.0502075,
4754,-0.0695801,0.0500122,
4756,-0.0384521,0.0501648,
4758,0.0152588,0.0500183,
4760,-0.0201416,0.0498962,
4762,0.00305176,0.0498474,
4764,-0.0457764,0.0499695,
4766,-0.0256348,0.049823,
4768,0.0152588,0.0496216,
4770,0.00488281,0.0495483,
4772,-0.0592041,0.0495728,
4774,0.0665283,0.0495361,
4776,0.0463867,0.0499207,
4778,-0.0726318,0.049939,
4780,0.0109863,0.0497803,
4782,-0.0408936,0.0492981,
4784,0.0360107,0.0488098,
4786,0.0384521,0.0487,
4788,-0.147095,0.0489319,
4790,0.0537109,0.0489746,
4792,0.0463867,0.0489685,
4794,-0.0897217,0.0493164,
4796,0.0927734,0.0493347,
4798,-0.0531006,0.049176,
4800,0.0268555,0.0490112,
4802,0.045166,0.0493164,
4804,-0.0909424,0.0491821,
4806,-0.00488281,0.0491333,
4808,0.0372314,0.0488281,
4810,-0.0366211,0.0489197,
4812,-0.0299072,0.049115,
4814,-0.0305176,0.048999,
4816,-0.0384521,0.0493774,
4818,0.0524902,0.0494446,
4820,0.00976563,0.0493652,
4822,-0.0708008,0.0491211,
4824,0.0506592,0.0490662,
4826,0.0567627,0.049115,
4828,-0.0994873,0.0491943,
4830,0.0445557,0.0494568,
4832,-0.0531006,0.0495789,
4834,0.0427246,0.0493652,
4836,0.0164795,0.0491394,
4838,-0.128174,0.0490784,
4840,0.0488281,0.0490967,
4842,0.0531006,0.049292,
4844,-0.0891113,0.0499329,
4846,0.065918,0.0503479,
4848,-0.0396729,0.0503174,
4850,0.0152588,0.049939,
4852,0.0140381,0.0498657,
4854,-0.0817871,0.0499146,
4856,-0.0146484,0.0499146,
4858,0.020752,0.0497803,
4860,-0.00427246,0.0495789,
4862,-0.0189209,0.0496033,
4864,-0.0585938,0.0497498,
4866,-0.00671387,0.0497192,
4868,0.0622559,0.0498169,
4870,0.0177002,0.049884,
4872,-0.0811768,0.0496216,
4874,0.057373,0.0494385,
4876,0.0360107,0.0494812,
4878,-0.0665283,0.0493225,
4880,0.0543213,0.0492859,
4882,-0.0592041,0.0492371,
4884,0.0109863,0.0492249,
4886,0.0653076,0.0492249,
4888,-0.115967,0.0490173,
4890,0.0305176,0.0486694,
4892,0.012207,0.0483643,
4894,-0.0823975,0.0482971,
4896,0.0933838,0.0486328,
4898,-0.0946045,0.0487854,
4900,0.0238037,0.0487976,
4902,0.0292969,0.0483154,
4904,-0.0836182,0.0479797,
4906,-0.0305176,0.0478821,
4908,0.0384521,0.0477112,
4910,-0.020752,0.0476624,
4912,0.0012207,0.0475891,
4914,-0.0164795,0.0469788,
4916,-0.0286865,0.0470886,
4918,0.0390625,0.0470764,
4920,0.0567627,0.0476257,
4922,-0.114136,0.0479309,
4924,0.0933838,0.0482483,
4926,0.022583,0.0483826,
4928,-0.0878906,0.0484863,
4930,0.0268555,0.0485596,
4932,-0.0653076,0.048584,
4934,0.043335,0.0486206,
4936,0.032959,0.0485596,
4938,-0.132446,0.0485535,
4940,0.0561523,0.0484192,
4942,0.0396729,0.0485474,
4944,-0.0646973,0.0487122,
4946,0.0817871,0.0489197,
4948,-0.0543213,0.0489197,
4950,0.0335693,0.0488708,
4952,0.0323486,0.0487915,
4954,-0.0701904,0.0487976,
4956,-0.0219727,0.0486328,
4958,0.0427246,0.0489075,
4960,-0.0201416,0.0489075,
4962,-0.00793457,0.0489563,
4964,-0.0494385,0.0489929,
4966,-0.00671387,0.0488037,
4968,0.0396729,0.0490479,
4970,0.0335693,0.0493347,
4972,-0.0970459,0.0497131,
4974,0.0708008,0.0497559,
4976,0.0146484,0.0494385,
4978,-0.0585938,0.0492981,
4980,0.0408936,0.0495972,
4982,-0.0708008,0.0498962,
4984,0.0201416,0.0497375,
4986,0.0512695,0.0498657,
4988,-0.13916,0.0497864,
4990,0.0415039,0.0496643,
4992,0.0244141,0.0494446,
4994,-0.067749,0.0492249,
4996,0.0994873,0.049292,
4998,-0.103149,0.0497925,
5000,0.0305176,0.0498291,
5002,0.0408936,0.0497864,
5004,-0.0933838,0.0498108,
5006,0.0128174,0.0498901,
5008,0.0384521,0.0499023,
5010,-0.00244141,0.0495605,
5012,-0.0335693,0.0495972,
5014,-0.0543213,0.0498352,
5016,-0.00488281,0.0494995,
5018,0.0372314,0.0493469,
5020,0.0415039,0.0496643,
5022,-0.125122,0.0502075,
5024,0.0720215,0.0504211,
5026,0.032959,0.0501831,
5028,-0.0616455,0.0498047,
5030,0.043335,0.0497925,
5032,-0.022583,0.0494873,
5034,0.0195313,0.0492554,
5036,0.0274658,0.0493652,
5038,-0.10376,0.0491211,
5040,0.0335693,0.0489685,
5042,0.0146484,0.048584,
5044,-0.0634766,0.0483276,
5046,0.0421143,0.0480896,
5048,-0.0946045,0.0486389,
5050,0.0146484,0.0486328,
5052,0.0390625,0.0488831,
5054,-0.0921631,0.0489868,
5056,-0.00793457,0.0489197,
5058,0.0323486,0.0490356,
5060,0.00915527,0.0490845,
5062,-0.0292969,0.0491882,
5064,-0.0305176,0.0489075,
5066,-0.0146484,0.0489868,
5068,0.0531006,0.0488953,
5070,0.0402832,0.0491211,
5072,-0.106201,0.0493713,
5074,0.0500488,0.0492981,
5076,0.0524902,0.0494629,
5078,-0.105591,0.0498535,
5080,0.0408936,0.0497192,
5082,-0.0592041,0.0497192,
5084,0.032959,0.049939,
5086,0.0622559,0.0499084,
5088,-0.100098,0.0497498,
5090,0.0213623,0.0496582,
5092,0.0463867,0.05,
5094,-0.0701904,0.0498779,
5096,0.103149,0.0499756,
5098,-0.0799561,0.0498291,
5100,0.0128174,0.0497192,
5102,0.0732422,0.0501587,
5104,-0.0799561,0.0501221,
5106,-0.0262451,0.0500793,
5108,0.0616455,0.0503113,
5110,-0.00854492,0.0501892,
5112,-0.0164795,0.0503418,
5114,-0.0170898,0.0503479,
5116,-0.0463867,0.0505249,
5118,0.0366211,0.0505005,
5120,0.0170898,0.0501038,
5122,-0.101318,0.0499756,
5124,0.0512695,0.0495544,
5126,0.03479,0.0496765,
5128,-0.090332,0.0497009,
5130,0.022583,0.0496582,
5132,-0.0518799,0.0495239,
5134,0.067749,0.0497681,
5136,-0.0164795,0.0496033,
5138,-0.0750732,0.0490295,
5140,0.00671387,0.0485352,
5142,0.0482178,0.0486206,
5144,-0.0671387,0.048645,
5146,0.0750732,0.0485779,
5148,-0.0830078,0.0488647,
5150,0.0482178,0.0490112,
5152,0.0170898,0.0488586,
5154,-0.0683594,0.0488403,
5156,-0.0164795,0.0487854,
5158,0.0262451,0.0486206,
5160,0.012207,0.0485413,
5162,-0.0396729,0.0488586,
5164,-0.0402832,0.0487671,
5166,-0.0177002,0.048877,
5168,0.0378418,0.0488586,
5170,0.0317383,0.0488403,
5172,-0.106201,0.0489319,
5174,0.0732422,0.0489563,
5176,0.0195313,0.0490051,
5178,-0.0897217,0.0493164,
5180,0.0543213,0.0494507,
5182,-0.0457764,0.0492004,
5184,0.0384521,0.0493835,
5186,0.0592041,0.0494629,
5188,-0.140381,0.0494751,
5190,0.0463867,0.0495239,
5192,0.0787354,0.0500671,
5194,-0.0628662,0.0500183,
5196,0.0750732,0.0497742,
5198,-0.0836182,0.0495789,
5200,0.0177002,0.0494507,
5202,0.0372314,0.0494141,
5204,-0.0695801,0.049176,
5206,-0.0488281,0.0495361,
5208,0.0244141,0.0493958,
5210,-0.00549316,0.0494263,
5212,-0.0506592,0.0495972,
5214,-0.03479,0.0494019,
5216,-0.0335693,0.0496887,
5218,0.0213623,0.04953,
5220,0.0360107,0.0494751,
5222,-0.120239,0.0494263,
5224,0.0872803,0.0495789,
5226,0.0335693,0.049585,
5228,-0.107422,0.0500427,
5230,0.0610352,0.0502197,
5232,-0.0354004,0.0503479,
5234,0.0463867,0.0506165,
5236,0.0250244,0.050592,
5238,-0.0982666,0.0505371,
5240,0.0445557,0.050647,
5242,0.0262451,0.0507629,
5244,-0.0598145,0.0507263,
5246,0.0842285,0.0511475,
5248,-0.0720215,0.0509216,
5250,-0.0115967,0.0508911,
5252,0.0604248,0.0511047,
5254,-0.0756836,0.0509399,
5256,-0.0170898,0.0510315,
5258,0.0415039,0.051123,
5260,0.0152588,0.0511841,
5262,-0.0537109,0.0514282,
5264,0.0128174,0.0512512,
5266,-0.0183105,0.0512878,
5268,0.0152588,0.0509094,
5270,0.0384521,0.0508911,
5272,-0.0701904,0.050531,
5274,0.0640869,0.0506714,
5276,0.045166,0.0505981,
5278,-0.10376,0.0505798,
5280,0.0299072,0.05047,
5282,-0.055542,0.0504333,
5284,0.0469971,0.0505737,
5286,0.0262451,0.0502136,
5288,-0.147095,0.0506836,
5290,0.0396729,0.0508667,
5292,0.0164795,0.0505676,
5294,-0.0683594,0.0505493,
5296,0.0683594,0.0502014,
5298,-0.0476074,0.0498779,
5300,0.00854492,0.0498352,
5302,0.0457764,0.0495605,
5304,-0.0549316,0.0493103,
5306,-0.043335,0.0494812,
5308,0.0585938,0.0494507,
5310,-0.00793457,0.0494446,
5312,-0.0268555,0.0495483,
5314,-0.0427246,0.0498047,
5316,-0.0213623,0.0495544,
5318,0.0439453,0.0496277,
5320,0.0280762,0.0497375,
5322,-0.098877,0.0497131,
5324,0.0775146,0.0499756,
5326,0.0384521,0.0500122,
5328,-0.0689697,0.0497986,
5330,0.0775146,0.0503479,
5332,-0.0616455,0.0504456,
5334,0.0469971,0.050238,
5336,0.0244141,0.0503174,
5338,-0.117798,0.0507446,
5340,0.03479,0.0510254,
5342,0.0360107,0.0509033,
5344,-0.045166,0.0506836,
5346,0.0201416,0.0501343,
5348,0.0012207,0.0493164,
5350,-0.0366211,0.0492004,
5352,0.045166,0.0494812,
5354,-0.0213623,0.0490112,
5356,-0.0408936,0.0492554,
5358,0.057373,0.0495667,
5360,-0.0482178,0.0499268,
5362,-0.0683594,0.0502136,
5364,0.0646973,0.0504578,
5366,-0.0549316,0.0508301,
5368,0.0012207,0.0504639,
5370,0.0445557,0.050592,
5372,-0.115356,0.0506836,
5374,0.0671387,0.0506226,
5376,0.0164795,0.050592,
5378,-0.0921631,0.0506165,
5380,0.0714111,0.0507874,
5382,-0.0567627,0.0508972,
5384,0.012207,0.0506348,
5386,0.0512695,0.0505554,
5388,-0.12085,0.0503601,
5390,0.0543213,0.0504395,
5392,0.0274658,0.0499268,
5394,-0.0506592,0.0498047,
5396,0.00244141,0.0490784,
5398,0.0457764,0.0487,
5400,-0.0445557,0.0489685,
5402,0.0280762,0.048877,
5404,-0.0152588,0.0483337,
5406,-0.0323486,0.0481689,
5408,0.0311279,0.0482361,
5410,-0.022583,0.048407,
5412,-0.0585938,0.0484863,
5414,0.0372314,0.0485107,
5416,-0.0811768,0.0489868,
5418,0.0372314,0.0491455,
5420,0.0262451,0.0490479,
5422,-0.098877,0.0488342,
5424,0.0506592,0.048468,
5426,0.055542,0.0486877,
5428,-0.0817871,0.0484314,
5430,0.00915527,0.0479126,
5432,-0.055542,0.048114,
5434,0.0402832,0.048053,
5436,0.0445557,0.0482483,
5438,-0.137329,0.0486389,
5440,0.0476074,0.0486694,
5442,0.0201416,0.0486084,
5444,-0.00427246,0.048053,
5446,-0.00488281,0.0472595,
5448,-0.022583,0.0467651,
5450,0.0366211,0.0470154,
5452,0.0506592,0.0469177,
5454,-0.0634766,0.0467957,
5456,-0.055542,0.0471802,
5458,0.0549316,0.0473145,
5460,0.0396729,0.0475586,
5462,-0.0561523,0.047583,
5464,-0.0170898,0.0476257,
5466,0.000610352,0.0474487,
5468,0.0250244,0.0475464,
5470,0.0415039,0.0475769,
5472,-0.101318,0.0478882,
5474,0.0622559,0.0478699,
5476,0.020752,0.0476257,
5478,-0.067749,0.0472656,
5480,0.0720215,0.0476868,
5482,-0.0445557,0.0475769,
5484,-0.0012207,0.0471191,
5486,0.0457764,0.0473145,
5488,-0.078125,0.0466248,
5490,0.012207,0.0463501,
5492,0.0372314,0.0465576,
5494,-0.0634766,0.0465088,
5496,0.0360107,0.0461853,
5498,0.0335693,0.0460449,
5500,-0.0512695,0.0464722,
5502,0.0134277,0.0461487,
5504,0.0146484,0.0457458,
5506,-0.0372314,0.0456848,
5508,0.0531006,0.0456299,
5510,-0.0292969,0.0458435,
5512,-0.0787354,0.0463623,
5514,0.0921631,0.0468567,
5516,-0.0775146,0.0474182,
5518,0.0115967,0.0470947,
5520,0.0494385,0.0473083,
5522,-0.102539,0.047345,
5524,0.0738525,0.0473083,
5526,-0.0335693,0.0472595,
5528,-0.0372314,0.0469421,
5530,0.117798,0.047345,
5532,-0.10437,0.0477722,
5534,0.0195313,0.0474976,
5536,0.0524902,0.0477783,
5538,-0.0964355,0.0475647,
5540,0.0219727,0.0474365,
5542,0.0378418,0.0474548,
5544,-0.0769043,0.0477722,
5546,0.0921631,0.0484924,
5548,-0.0976563,0.0494568,
5550,-0.00183105,0.0491089,
5552,0.0567627,0.0492249,
5554,-0.0286865,0.0492981,
5556,-0.0463867,0.049353,
5558,0.0366211,0.0491455,
5560,0.0128174,0.0487915,
5562,-0.0561523,0.0486694,
5564,-0.0384521,0.048407,
5566,-0.0311279,0.0481689,
5568,0.0360107,0.0485168,
5570,0.0201416,0.0482727,
5572,-0.115967,0.0482788,
5574,0.0830078,0.0484375,
5576,0.0549316,0.048822,
5578,-0.0640869,0.0485413,
5580,0.0537109,0.0483643,
5582,-0.0732422,0.0485291,
5584,0.0708008,0.049115,
5586,0.0231934,0.0488342,
5588,-0.103149,0.0486572,
5590,-0.00549316,0.0481689,
5592,0.0219727,0.048114,
5594,-0.0695801,0.0483032,
5596,0.0738525,0.0490173,
5598,-0.0543213,0.0491028,
5600,0.0177002,0.0488342,
5602,0.00427246,0.0485962,
5604,-0.0445557,0.0488892,
5606,-0.0201416,0.0487671,
5608,0.0531006,0.0489868,
5610,-0.0250244,0.0490112,
5612,-0.0701904,0.0491272,
5614,-0.00488281,0.0488037,
5616,-0.0402832,0.0483948,
5618,0.0219727,0.0482422,
5620,0.0500488,0.0484802,
5622,-0.110474,0.0485962,
5624,0.0701904,0.0487915,
5626,0.0366211,0.0486023,
5628,-0.101929,0.0488037,
5630,0.0671387,0.0493835,
5632,-0.0598145,0.0494263,
5634,0.0408936,0.0494324,
5636,0.0506592,0.0494934,
5638,-0.128784,0.049408,
5640,0.0115967,0.0490479,
5642,0.0390625,0.0492371,
5644,-0.0592041,0.0497864,
5646,0.045166,0.0501892,
5648,-0.057373,0.0505371,
5650,0.0402832,0.0505737,
5652,0.0189209,0.0502563,
5654,-0.0323486,0.0499451,
5656,-0.0195313,0.049585,
5658,0.0970459,0.0500061,
5660,0.0115967,0.0497253,
5662,-0.045166,0.0496155,
5664,-0.0219727,0.0496643,
5666,-0.0457764,0.050116,
5668,0.0500488,0.0503662,
5670,0.0109863,0.050061,
5672,-0.130615,0.050354,
5674,0.0366211,0.0500977,
5676,0.0274658,0.0501648,
5678,-0.0958252,0.0504456,
5680,0.0616455,0.0503418,
5682,-0.0628662,0.0505249,
5684,0.0354004,0.0508667,
5686,0.0323486,0.0507324,
5688,-0.12085,0.0511597,
5690,0.0335693,0.0513733,
5692,0.0482178,0.0514832,
5694,-0.0482178,0.0513306,
5696,0.0592041,0.0515625,
5698,-0.0689697,0.0519165,
5700,0.00549316,0.0514587,
5702,0.0634766,0.0519592,
5704,-0.0299072,0.0521118,
5706,-0.0598145,0.0523376,
5708,0.0280762,0.0520874,
5710,0.03479,0.0521423,
5712,-0.0341797,0.0516968,
5714,-0.022583,0.051001,
5716,-0.022583,0.0504517,
5718,0.0463867,0.0507996,
5720,0.0378418,0.0506836,
5722,-0.0866699,0.0505249,
5724,0.0750732,0.0505371,
5726,0.0109863,0.0503113,
5728,-0.0872803,0.0508118,
5730,0.0445557,0.0500793,
5732,-0.057373,0.0496094,
5734,0.0421143,0.0498352,
5736,0.0213623,0.0495239,
5738,-0.133667,0.0498962,
5740,0.00305176,0.049707,
5742,0.043335,0.049762,
5744,-0.0317383,0.0493103,
5746,0.0646973,0.0490356,
5748,-0.0604248,0.0486633,
5750,-0.0213623,0.0488586,
5752,0.0634766,0.0489258,
5754,-0.0469971,0.0491089,
5756,-0.0531006,0.049176,
5758,0.0494385,0.0493042,
5760,-0.0134277,0.0493103,
5762,-0.0708008,0.0494568,
5764,0.010376,0.049176,
5766,0.0115967,0.0489807,
5768,0.0799561,0.0494202,
5770,0.111084,0.0503296,
5772,-0.123901,0.0504089,
5774,0.10376,0.0506165,
5776,0.150146,0.0515686,
5778,-0.0378418,0.0513062,
5780,0.098877,0.0517578,
5782,-0.0494385,0.0515198,
5784,0.0854492,0.0516663,
5786,0.128784,0.0527222,
5788,-0.175781,0.0534485,
5790,-0.0482178,0.0538757,
5792,0.043335,0.0540894,
5794,-0.0579834,0.0539734,
5796,0.151367,0.0547485,
5798,-0.0817871,0.0550232,
5800,-0.10376,0.0558838,
5802,0.204468,0.0578857,
5804,0.0427246,0.0578674,
5806,-0.163574,0.0593018,
5808,0.0146484,0.0589172,
5810,-0.0537109,0.0592041,
5812,0.116577,0.059668,
5814,-0.119629,0.0608154,
5816,-0.240479,0.0628174,
5818,-0.0140381,0.062738,
5820,-0.0335693,0.0625732,
5822,-0.142822,0.0628967,
5824,0.0622559,0.0628174,
5826,0.0708008,0.0631592,
5828,-0.0787354,0.0629272,
5830,-0.0970459,0.0632263,
5832,-0.22522,0.0648804,
5834,0.0714111,0.0651855,
5836,-0.0012207,0.0646912,
5838,-0.236816,0.0657715,
5840,-0.131226,0.0669678,
5842,0.0561523,0.0671387,
5844,-0.0872803,0.0674194,
5846,-0.0891113,0.0678589,
5848,-0.0854492,0.0681396,
5850,0.0305176,0.068042,
5852,0.0726318,0.0685791,
5854,-0.0561523,0.0688171,
5856,-0.0531006,0.0691528,
5858,0.0317383,0.0684998,
5860,-0.0421143,0.0688049,
5862,-0.045166,0.0688049,
5864,-0.00610352,0.0686462,
5866,-0.0280762,0.0684692,
5868,0.045166,0.0684204,
5870,0.109863,0.0694092,
5872,-0.147705,0.0695801,
5874,0.101318,0.0702271,
5876,0.0762939,0.0707153,
5878,0.0183105,0.0699402,
5880,0.139771,0.0707214,
5882,-0.137939,0.0714722,
5884,0.0646973,0.0717651,
5886,0.0457764,0.0718994,
5888,-0.100708,0.071698,
5890,0.00427246,0.071405,
5892,-0.0561523,0.0714844,
5894,-0.00915527,0.0710937,
5896,0.012207,0.0706238,
5898,-0.119019,0.0711243,
5900,0.0500488,0.0715698,
5902,0.0695801,0.0716309,
5904,-0.0213623,0.0715454,
5906,-0.0482178,0.0714294,
5908,0.13916,0.0725403,
5910,0.172729,0.0739197,
5912,-0.198364,0.0755615,
5914,0.0128174,0.0754639,
5916,0.0012207,0.0752502,
5918,0.0299072,0.0750854,
5920,0.0445557,0.0751526,
5922,-0.170288,0.0759888,
5924,0.0299072,0.0755371,
5926,0.15564,0.0769836,
5928,-0.10498,0.0771606,
5930,0.116577,0.0778809,
5932,-0.0878906,0.078186,
5934,0.108032,0.0788452,
5936,0.0189209,0.0788208,
5938,-0.0891113,0.0783752,
5940,0.0274658,0.0786194,
5942,0.15686,0.0797546,
5944,-0.133057,0.0807678,
5946,-0.0805664,0.0809265,
5948,0.0140381,0.0804626,
5950,0.120239,0.0814514,
5952,0.0189209,0.0810059,
5954,-0.101929,0.0815552,
5956,-0.0299072,0.0813232,
5958,-0.0360107,0.081189,
5960,0.0482178,0.0815369,
5962,-0.106201,0.0818909,
5964,0.0488281,0.0822754,
5966,-0.0280762,0.0824402,
5968,-0.0213623,0.0818542,
5970,0.144653,0.0821899,
5972,-0.0982666,0.0819336,
5974,0.0750732,0.0816467,
5976,-0.0311279,0.0804565,
5978,-0.0115967,0.0801941,
5980,0.0543213,0.0797485,
5982,-0.128784,0.080542,
5984,0.0421143,0.0801086,
5986,0.0494385,0.0793152,
5988,-0.162964,0.079187,
5990,0.0610352,0.0793152,
5992,-0.0396729,0.0792786,
5994,-0.0158691,0.0788574,
5996,0.0134277,0.077478,
5998,0.00305176,0.0766907,
6000,0.0567627,0.0762207,
6002,-0.0708008,0.074884,
6004,0.0585938,0.0750427,
6006,-0.123901,0.074646,
6008,0.166016,0.0761597,
6010,0.0964355,0.0765869,
6012,-0.130005,0.0767212,
6014,-0.0286865,0.0758118,
6016,-0.0366211,0.0737732,
6018,0.0445557,0.0740784,
6020,-0.00854492,0.0738281,
6022,-0.105591,0.0734558,
6024,-0.0366211,0.0731995,
6026,-0.0115967,0.0726074,
6028,-0.078125,0.0726013,
6030,0.10437,0.0726746,
6032,-0.032959,0.070752,
6034,0.0372314,0.0704102,
6036,0.0585938,0.0709839,
6038,-0.101929,0.069635,
6040,0.065918,0.0689819,
6042,0.155029,0.0699707,
6044,-0.15564,0.0706543,
6046,0.112305,0.0708862,
6048,0.00549316,0.0700867,
6050,0.0378418,0.0701599,
6052,0.0128174,0.0695618,
6054,-0.0518799,0.069519,
6056,-0.0592041,0.0695801,
6058,0.149536,0.0707581,
6060,-0.161133,0.0719482,
6062,-0.032959,0.0718262,
6064,0.00305176,0.0717957,
6066,-0.067749,0.0721924,
6068,0.0390625,0.0721313,
6070,0.0408936,0.0714417,
6072,-0.158691,0.0715515,
6074,0.0512695,0.071051,
6076,0.115356,0.0714417,
6078,-0.115356,0.0724121,
6080,0.24231,0.0734375,
6082,-0.178223,0.0738403,
6084,0.133057,0.0745239,
6086,-0.0506592,0.0745728,
6088,-0.119019,0.0747559,
6090,0.045166,0.0751648,
6092,-0.0177002,0.0747803,
6094,-0.0830078,0.0755188,
6096,-0.00915527,0.0754883,
6098,-0.0915527,0.0752136,
6100,-0.0134277,0.0748474,
6102,0.0317383,0.074469,
6104,0.0531006,0.0747864,
6106,-0.0512695,0.0748169,
6108,0.0592041,0.0740173,
6110,0.022583,0.0725159,
6112,-0.0280762,0.070813,
6114,0.0500488,0.0711853,
6116,0.00488281,0.0712219,
6118,0.0756836,0.0716797,
6120,0.00854492,0.0713196,
6122,0.0231934,0.0698486,
6124,-0.0567627,0.0701172,
6126,0.0628662,0.0691895,
6128,-0.0860596,0.0690002,
6130,0.0549316,0.0683838,
6132,-0.10376,0.0685425,
6134,0.0311279,0.0677734,
6136,-0.0708008,0.0682922,
6138,-0.0915527,0.0683167,
6140,0.0250244,0.0682922,
6142,0.103149,0.0677551,
6144,-0.128174,0.0677063,
6146,0.0561523,0.0674622,
6148,-0.0427246,0.067749,
6150,0.13916,0.0679382,
6152,-0.0256348,0.0680054,
6154,-0.088501,0.0678711,
6156,-0.0115967,0.067688,
6158,0.108032,0.0684082,
6160,-0.0482178,0.0684082,
6162,-0.109253,0.0684387,
6164,-0.0323486,0.0682739,
6166,-0.0512695,0.0685059,
6168,0.0524902,0.0688171,
6170,0.0115967,0.0674866,
6172,-0.147705,0.067981,
6174,0.0805664,0.0680359,
6176,0.0238037,0.0679626,
6178,-0.0616455,0.0684631,
6180,0.106812,0.068988,
6182,-0.0274658,0.0679749,
6184,0.108643,0.0686401,
6186,0.0836182,0.0689819,
6188,-0.200806,0.0693604,
6190,0.263062,0.0713806,
6192,-0.065918,0.0716431,
6194,0.0012207,0.0714966,
6196,0.0109863,0.0714722,
6198,-0.113525,0.0725769,
6200,-0.045166,0.0724609,
6202,0.0012207,0.0717651,
6204,-0.0445557,0.0716248,
6206,-0.117188,0.0715576,
6208,0.0360107,0.0702576,
6210,0.0109863,0.0694031,
6212,-0.045166,0.0685547,
6214,0.010376,0.0683716,
6216,-0.022583,0.0682312,
6218,0.0512695,0.0682983,
6220,0.0396729,0.0686096,
6222,-0.102539,0.0685791,
6224,0.0628662,0.0688416,
6226,0.0372314,0.0690979,
6228,-0.0811768,0.0691284,
6230,0.0469971,0.0685547,
6232,0.00549316,0.06828,
6234,0.0750732,0.0686584,
6236,0.045166,0.0685242,
6238,-0.142822,0.0689331,
6240,0.0567627,0.0688416,
6242,0.0994873,0.0682861,
6244,-0.0280762,0.0670105,
6246,0.0341797,0.0662292,
6248,-0.0701904,0.0668762,
6250,-0.0134277,0.0666321,
6252,0.020752,0.0667114,
6254,-0.0494385,0.066687,
6256,-0.0842285,0.0669373,
6258,0.043335,0.0658752,
6260,-0.010376,0.0643677,
6262,-0.0964355,0.0650024,
6264,-0.00183105,0.0649902,
6266,-0.0335693,0.0646484,
6268,0.0549316,0.0648071,
6270,0.0286865,0.0646851,
6272,-0.117188,0.06427,
6274,0.0640869,0.0643982,
6276,0.0402832,0.0636475,
6278,-0.0738525,0.0632324,
6280,0.067749,0.0614868,
6282,-0.0469971,0.0601746,
6284,0.0567627,0.0594116,
6286,0.0341797,0.0592468,
6288,-0.0518799,0.0585754,
6290,0.00549316,0.0581787,
6292,0.0665283,0.058667,
6294,0.00671387,0.0579041,
6296,0.0317383,0.0581299,
6298,-0.0671387,0.0578857,
6300,-0.0421143,0.0581726,
6302,0.032959,0.0581848,
6304,-0.00244141,0.0576782,
6306,-0.0946045,0.0581116,
6308,0.0402832,0.0579224,
6310,-0.0140381,0.0578369,
6312,-0.0878906,0.0584351,
6314,0.0402832,0.0583374,
6316,-0.090332,0.0591919,
6318,0.0592041,0.0590271,
6320,0.0164795,0.0591064,
6322,-0.144653,0.060321,
6324,0.0506592,0.06026,
6326,0.0280762,0.0599121,
6328,-0.0830078,0.0598816,
6330,0.0793457,0.0601257,
6332,-0.0683594,0.0597717,
6334,0.0177002,0.0596375,
6336,0.0396729,0.0593262,
6338,-0.0524902,0.0589355,
6340,-0.0109863,0.0587952,
6342,0.0378418,0.0581421,
6344,-0.0158691,0.057019,
6346,0.0262451,0.05672,
6348,-0.0183105,0.0564758,
6350,-0.00732422,0.0551575,
6352,0.115967,0.0560608,
6354,-0.00305176,0.0552063,
6356,-0.109253,0.0561829,
6358,0.0524902,0.0556274,
6360,0.0897217,0.0560425,
6362,-0.111084,0.0560608,
6364,-0.0238037,0.0559753,
6366,-0.0866699,0.0563293,
6368,0.0646973,0.0564514,
6370,-0.00793457,0.0564148,
6372,-0.137329,0.056311,
6374,0.0628662,0.056134,
6376,0.0341797,0.0562378,
6378,-0.0891113,0.0565125,
6380,0.0756836,0.0562012,
6382,-0.0598145,0.0565247,
6384,0.0311279,0.0557495,
6386,0.022583,0.0551392,
6388,-0.0787354,0.0539185,
6390,-0.00366211,0.0513245,
6392,0.045166,0.0511169,
6394,-0.0299072,0.0514038,
6396,0.0878906,0.0521729,
6398,-0.0860596,0.0518982,
6400,0.00488281,0.0514954,
6402,0.0653076,0.0521362,
6404,0.0280762,0.0519714,
6406,-0.0244141,0.0510437,
6408,0.0939941,0.0516235,
6410,0.090332,0.052417,
6412,0.000610352,0.0519714,
6414,-0.0305176,0.0521729,
6416,-0.0109863,0.0520569,
6418,0.0488281,0.0520325,
6420,0.0494385,0.0521301,
6422,-0.120239,0.0523071,
6424,-0.0701904,0.0523804,
6426,-0.00488281,0.0520569,
6428,-0.088501,0.0521301,
6430,0.0549316,0.0522095,
6432,-0.101318,0.0531677,
6434,0.0195313,0.0526123,
6436,0.00732422,0.0522339,
6438,-0.0982666,0.0517883,
6440,-0.012207,0.0513428,
6442,0.0299072,0.050647,
6444,-0.0292969,0.0506592,
6446,0.0195313,0.0505127,
6448,-0.043335,0.0502441,
6450,-0.00793457,0.0501892,
6452,0.0640869,0.0506226,
6454,-0.00427246,0.0501709,
6456,-0.0378418,0.049707,
6458,0.0787354,0.050061,
6460,0.0305176,0.0502625,
6462,-0.0683594,0.0499817,
6464,0.0384521,0.0503479,
6466,-0.0421143,0.0504333,
6468,0.0408936,0.050293,
6470,0.0402832,0.0504089,
6472,-0.113525,0.0503723,
6474,0.0671387,0.0504028,
6476,-0.00915527,0.0500916,
6478,0.0115967,0.049469,
6480,0.0518799,0.0493103,
6482,-0.0622559,0.0494629,
6484,0.106201,0.0499573,
6486,0.020752,0.049823,
6488,-0.119019,0.0504944,
6490,-0.00427246,0.0504822,
6492,0.0744629,0.0505615,
6494,-0.0439453,0.0509338,
6496,-0.00854492,0.0507019,
6498,-0.0482178,0.0505127,
6500,-0.0268555,0.0503601,
6502,0.0457764,0.0504883,
6504,-0.00366211,0.0505005,
6506,-0.0646973,0.0502014,
6508,0.0744629,0.0505432,
6510,0.0183105,0.0505859,
6512,-0.0848389,0.0505554,
6514,0.00976563,0.0502502,
6516,-0.0402832,0.0497498,
6518,0.0500488,0.0496582,
6520,0.0262451,0.0497559,
6522,-0.0970459,0.0492798,
6524,0.0506592,0.0492798,
6526,0.03479,0.0493469,
6528,-0.0604248,0.0491211,
6530,0.0811768,0.0491394,
6532,-0.0622559,0.0490784,
6534,0.0311279,0.0492126,
6536,0.032959,0.0491455,
6538,-0.0891113,0.0495117,
6540,0.00427246,0.0494446,
6542,0.00549316,0.0491211,
6544,-0.0244141,0.0492065,
6546,0.020752,0.0491516,
6548,-0.0701904,0.0496704,
6550,0.020752,0.0498047,
6552,0.0952148,0.0495972,
6554,-0.101318,0.0505798,
6556,-0.0457764,0.0499451,
6558,0.0646973,0.0500671,
6560,0.0189209,0.0493591,
6562,-0.0634766,0.0488831,
6564,0.0268555,0.0489136,
6566,-0.0872803,0.0489197,
6568,0.00854492,0.0483582,
6570,0.0439453,0.0487183,
6572,-0.116577,0.0485107,
6574,0.0549316,0.0484314,
6576,0.0115967,0.0482056,
6578,-0.0921631,0.0482361,
6580,0.0579834,0.0480591,
6582,-0.0622559,0.0480835,
6584,0.00549316,0.0478271,
6586,0.0396729,0.047998,
6588,-0.0787354,0.047998,
6590,-0.0366211,0.0483276,
6592,0.0512695,0.0483887,
6594,-0.0109863,0.0481995,
6596,0.0280762,0.0476013,
6598,-0.0390625,0.0471313,
6600,-0.012207,0.0472046,
6602,0.0244141,0.0467957,
6604,0.0415039,0.0469299,
6606,-0.0634766,0.0473206,
6608,0.125732,0.0476379,
6610,-0.0128174,0.0468628,
6612,-0.114136,0.047998,
6614,0.0543213,0.0482361,
6616,0.0415039,0.0485413,
6618,0.0537109,0.0485901,
6620,-0.0183105,0.0482788,
6622,-0.136108,0.0484375,
6624,0.0665283,0.0484009,
6626,-0.0262451,0.0486145,
6628,-0.0860596,0.0485901,
6630,0.0476074,0.0485168,
6632,-0.0689697,0.0481934,
6634,0.012207,0.0481201,
6636,0.0262451,0.0483093,
6638,-0.0915527,0.0482422,
6640,-0.00427246,0.0481628,
6642,0.078125,0.048645,
6644,-0.0268555,0.0486206,
6646,0.0219727,0.048645,
6648,-0.0366211,0.0485779,
6650,-0.00732422,0.0485718,
6652,0.0537109,0.048468,
6654,0.0152588,0.0485779,
6656,-0.0787354,0.0489868,
6658,0.065918,0.0488586,
6660,0.0292969,0.0488464,
6662,-0.0970459,0.0491333,
6664,0.0268555,0.0490173,
6666,-0.0341797,0.048938,
6668,0.0579834,0.0491089,
6670,0.012207,0.0488281,
6672,-0.13916,0.0490845,
6674,0.101929,0.0494324,
6676,0.012207,0.0494629,
6678,-0.057373,0.0499207,
6680,0.0811768,0.0502136,
6682,-0.0720215,0.0503113,
6684,0.0762939,0.0500122,
6686,0.0268555,0.0500732,
6688,-0.107422,0.0499573,
6690,0.00488281,0.0499634,
6692,0.0628662,0.0498474,
6694,-0.0280762,0.0496887,
6696,-0.00305176,0.0496338,
6698,-0.0366211,0.0495178,
6700,-0.0115967,0.0493652,
6702,0.0256348,0.0491638,
6704,0.0128174,0.0492554,
6706,-0.0744629,0.049353,
6708,0.0653076,0.0492615,
6710,0.0286865,0.0493652,
6712,-0.0421143,0.048938,
6714,-0.0292969,0.0491333,
6716,-0.0439453,0.0491699,
6718,0.0701904,0.0493713,
6720,0.0146484,0.0492554,
6722,-0.134888,0.0496338,
6724,0.0463867,0.0495911,
6726,0.0402832,0.049646,
6728,-0.0952148,0.0499939,
6730,0.0439453,0.0496216,
6732,-0.0488281,0.0494873,
6734,0.0415039,0.0495911,
6736,0.0488281,0.0497498,
6738,-0.0921631,0.0497803,
6740,0.0012207,0.0497498,
6742,0.0537109,0.0502319,
6744,0.0335693,0.0503235,
6746,-0.0299072,0.050415,
6748,-0.0360107,0.0500732,
6750,0.0238037,0.0501038,
6752,0.0177002,0.0493286,
6754,0.022583,0.0485413,
6756,-0.0982666,0.0490662,
6758,0.0500488,0.0489197,
6760,0.0775146,0.0495056,
6762,-0.0701904,0.0495728,
6764,-0.0323486,0.0496277,
6766,-0.0341797,0.0490967,
6768,0.0732422,0.0497437,
6770,-0.00610352,0.0493652,
6772,-0.136719,0.0495667,
6774,0.0244141,0.0492615,
6776,0.0390625,0.0495361,
6778,-0.0830078,0.0494446,
6780,0.0823975,0.0496887,
6782,-0.0787354,0.0498535,
6784,0.0177002,0.0499756,
6786,0.0488281,0.0500671,
6788,-0.067749,0.0499573,
6790,-0.010376,0.0496948,
6792,0.0341797,0.0495239,
6794,-0.00671387,0.0494812,
6796,0.0134277,0.0493347,
6798,-0.0402832,0.0493469,
6800,0.00610352,0.0492859,
6802,0.0415039,0.0494568,
6804,0.0274658,0.0493164,
6806,-0.0726318,0.049408,
6808,0.0720215,0.0488708,
6810,0.0396729,0.0491394,
6812,-0.0708008,0.0487061,
6814,0.0396729,0.0485596,
6816,-0.0463867,0.0486084,
6818,0.0665283,0.0487366,
6820,0.0128174,0.0486816,
6822,-0.117798,0.0484985,
6824,0.0164795,0.047998,
6826,0.0488281,0.0482239,
6828,-0.12207,0.048584,
6830,0.0665283,0.0487732,
6832,-0.0610352,0.0486938,
6834,-0.0177002,0.0487488,
6836,0.0439453,0.0489258,
6838,-0.0872803,0.0488831,
6840,-0.00549316,0.0488953,
6842,0.0476074,0.0485901,
6844,-0.0292969,0.0486145,
6846,-0.00610352,0.0484558,
6848,-0.0366211,0.0484558,
6850,0.022583,0.0486084,
6852,0.0280762,0.0483521,
6854,0.0109863,0.0483093,
6856,-0.0927734,0.0484497,
6858,0.0579834,0.0483704,
6860,0.0518799,0.0485962,
6862,-0.111084,0.0487366,
6864,0.0323486,0.0487915,
6866,-0.0524902,0.0489746,
6868,0.0360107,0.0487549,
6870,0.0402832,0.0490356,
6872,-0.126953,0.0489136,
6874,0.0476074,0.0483704,
6876,0.0231934,0.0484802,
6878,-0.0579834,0.0484863,
6880,0.0689697,0.0483643,
6882,-0.0646973,0.048291,
6884,0.00793457,0.0476074,
6886,0.0518799,0.0478577,
6888,-0.065918,0.0474426,
6890,-0.0579834,0.0479736,
6892,0.0579834,0.0479248,
6894,-0.00305176,0.0476746,
6896,0.00671387,0.0477112,
6898,-0.0415039,0.04776,
6900,-0.0323486,0.0479675,
6902,0.0244141,0.0479553,
6904,0.0494385,0.0483215,
6906,-0.0769043,0.0483459,
6908,0.0366211,0.0480591,
6910,0.0500488,0.0482727,
6912,-0.135498,0.0492065,
6914,0.0549316,0.0494629,
6916,-0.0714111,0.0497375,
6918,0.032959,0.0493652,
6920,0.0524902,0.0497437,
6922,-0.150146,0.0498962,
6924,0.0360107,0.0497925,
6926,0.010376,0.0494934,
6928,-0.0561523,0.0491028,
6930,0.0787354,0.0494507,
6932,-0.0476074,0.0494385,
6934,0.000610352,0.0490295,
6936,0.0341797,0.0488831,
6938,-0.0701904,0.0486633,
6940,-0.0274658,0.0489258,
6942,0.0543213,0.0489319,
6944,0.022583,0.048822,
6946,-0.0402832,0.0489258,
6948,-0.0268555,0.0488342,
6950,0.00183105,0.0486145,
6952,0.0567627,0.0490051,
6954,0.0170898,0.0489502,
6956,-0.0964355,0.0489319,
6958,0.0695801,0.0491272,
6960,0.0512695,0.0488647,
6962,-0.126953,0.0494324,
6964,0.0372314,0.0494812,
6966,-0.0543213,0.0496826,
6968,0.0390625,0.0493408,
6970,0.0195313,0.0494751,
6972,-0.123291,0.0493408,
6974,0.0341797,0.0494385,
6976,0.0579834,0.0496277,
6978,-0.0622559,0.0494202,
6980,0.0793457,0.0493896,
6982,-0.0915527,0.0495178,
6984,0.0524902,0.0498657,
6986,0.0524902,0.0499023,
6988,-0.0738525,0.0499634,
6990,-0.0421143,0.0502808,
6992,0.0512695,0.0504517,
6994,-0.00671387,0.0504517,
6996,-0.00488281,0.0503662,
6998,-0.0341797,0.0503052,
7000,-0.0317383,0.0505615,
7002,0.0427246,0.0505737,
7004,0.032959,0.0506287,
7006,-0.0769043,0.0506714,
7008,0.0482178,0.0504333,
7010,0.0311279,0.0503479,
7012,-0.0915527,0.0505554,
7014,0.0408936,0.0505676,
7016,-0.0579834,0.0506836,
7018,0.0482178,0.0505005,
7020,0.0292969,0.0506653,
7022,-0.117188,0.0506592,
7024,0.0695801,0.0511902,
7026,0.0396729,0.0510986,
7028,-0.0518799,0.0503967,
7030,0.0640869,0.0503723,
7032,-0.043335,0.0501953,
7034,0.0341797,0.0503601,
7036,0.045166,0.0503723,
7038,-0.0732422,0.0502319,
7040,-0.032959,0.0505066,
7042,0.057373,0.0506042,
7044,0.0012207,0.0503235,
7046,-0.010376,0.0503662,
7048,-0.0402832,0.0504028,
7050,-0.0274658,0.0504517,
7052,0.0488281,0.0506592,
7054,0.0311279,0.0508606,
7056,-0.119629,0.0511292,
7058,0.0482178,0.0510315,
7060,0.020752,0.0507202,
7062,-0.0878906,0.0504883,
7064,0.03479,0.0505127,
7066,-0.0653076,0.0506409,
7068,0.0476074,0.0507568,
7070,0.0524902,0.0508789,
7072,-0.110474,0.0507141,
7074,0.0213623,0.0504517,
7076,0.0439453,0.0506592,
7078,-0.0585938,0.0506653,
7080,0.0891113,0.0508667,
7082,-0.0634766,0.0508545,
7084,0.0219727,0.0509949,
7086,0.0427246,0.0509033,
7088,-0.0756836,0.051001,
7090,-0.0158691,0.0505798,
7092,0.0457764,0.0504578,
7094,0.00671387,0.0504944,
7096,-0.0238037,0.0506653,
7098,-0.0561523,0.0508118,
7100,-0.022583,0.0507141,
7102,0.0280762,0.0507507,
7104,0.0195313,0.0504517,
7106,-0.113525,0.0508179,
7108,0.0787354,0.051239,
7110,0.0439453,0.051178,
7112,-0.0897217,0.0507202,
7114,0.0231934,0.0504028,
7116,-0.0415039,0.0501038,
7118,0.067749,0.0504517,
7120,0.065918,0.0505859,
7122,-0.170898,0.0507935,
7124,0.0488281,0.0509216,
7126,0.0268555,0.0510864,
7128,-0.0610352,0.0511353,
7130,0.0878906,0.0512268,
7132,-0.0866699,0.0516174,
7134,0.0268555,0.0518799,
7136,0.0402832,0.0519409,
7138,-0.0732422,0.0519714,
7140,-0.0408936,0.0521057,
7142,0.0335693,0.0518982,
7144,0.0170898,0.0518433,
7146,-0.0421143,0.0518616,
7148,-0.0402832,0.0519958,
7150,-0.0177002,0.0521545,
7152,0.0463867,0.0520508,
7154,0.0469971,0.0523499,
7156,-0.109253,0.052478,
7158,0.0628662,0.0524109,
7160,0.0427246,0.0523254,
7162,-0.0946045,0.052002,
7164,0.057373,0.0522034,
7166,-0.067749,0.0523376,
7168,0.0549316,0.0524963,
7170,0.0201416,0.0525024,
7172,-0.0946045,0.0522156,
7174,0.0390625,0.0522644,
7176,0.0415039,0.0520996,
7178,-0.0561523,0.0520386,
7180,0.0665283,0.0519104,
7182,-0.0756836,0.0517517,
7184,0.0250244,0.0514771,
7186,0.0280762,0.0512329,
7188,-0.0506592,0.051001,
7190,-0.0585938,0.0511658,
7192,0.0256348,0.0509094,
7194,-0.0262451,0.0511047,
7196,-0.0244141,0.0513,
7198,-0.0280762,0.051239,
7200,-0.0427246,0.0513489,
7202,0.0390625,0.0513123,
7204,0.0402832,0.0513855,
7206,-0.0970459,0.0515869,
7208,0.0714111,0.0518188,
7210,0.045166,0.0519592,
7212,-0.0762939,0.0518066,
7214,0.0457764,0.0518555,
7216,-0.0360107,0.0516357,
7218,0.0445557,0.0515991,
7220,0.0341797,0.0516479,
7222,-0.128174,0.0517578,
7224,0.0622559,0.0516846,
7226,0.0372314,0.0516602,
7228,-0.0878906,0.0520203,
7230,0.0854492,0.0522339,
7232,-0.0506592,0.0523071,
7234,0.0341797,0.0523071,
7236,0.045166,0.0523071,
7238,-0.0488281,0.052063,
7240,-0.0360107,0.0520935,
7242,0.0445557,0.0519653,
7244,0.0274658,0.0522278,
7246,0.00610352,0.0521851,
7248,-0.0476074,0.0522583,
7250,-0.0152588,0.0521362,
7252,0.0457764,0.0521057,
7254,0.0109863,0.0519043,
7256,-0.102539,0.0517334,
7258,0.0604248,0.0518555,
7260,0.0256348,0.0519043,
7262,-0.0946045,0.0519714,
7264,0.0311279,0.0519348,
7266,-0.0524902,0.0518066,
7268,0.0427246,0.0517578,
7270,0.0231934,0.0514648,
7272,-0.108643,0.0514465,
7274,0.0482178,0.0517151,
7276,0.0146484,0.0514221,
7278,-0.0579834,0.051416,
7280,0.0897217,0.0514221,
7282,-0.0769043,0.0515564,
7284,0.0195313,0.051532,
7286,0.0280762,0.0513855,
7288,-0.0500488,0.0511292,
7290,-0.0323486,0.0512939,
7292,0.0579834,0.051416,
7294,0.0274658,0.0516235,
7296,-0.010376,0.0514893,
7298,-0.0463867,0.0513916,
7300,-0.0177002,0.0513428,
7302,0.0616455,0.0516785,
7304,0.0415039,0.0518982,
7306,-0.10437,0.0518066,
7308,0.0518799,0.0515381,
7310,0.0231934,0.0513306,
7312,-0.098877,0.0514221,
7314,0.0726318,0.0519165,
7316,-0.0537109,0.0520386,
7318,0.0427246,0.0517883,
7320,0.0134277,0.0512634,
7322,-0.109863,0.0506531,
7324,0.0396729,0.0505615,
7326,0.0286865,0.0505798,
7328,-0.0488281,0.0504578,
7330,0.0610352,0.0501892,
7332,-0.0469971,0.0497925,
7334,0.0268555,0.0497925,
7336,0.032959,0.0497192,
7338,-0.0427246,0.0494141,
7340,-0.0109863,0.049115,
7342,0.0305176,0.0490845,
7344,-0.00183105,0.0489319,
7346,-0.0183105,0.0486938,
7348,-0.0445557,0.0487366,
7350,-0.0439453,0.048999,
7352,0.0457764,0.0489929,
7354,0.0415039,0.048938,
7356,-0.10498,0.0488953,
7358,0.0701904,0.0489685,
7360,0.0317383,0.0488586,
7362,-0.0701904,0.0486145,
7364,0.0671387,0.0487122,
7366,-0.0640869,0.0486755,
7368,0.0714111,0.0488403,
7370,0.0189209,0.0488281,
7372,-0.118408,0.0490662,
7374,0.0439453,0.049115,
7376,0.0152588,0.0488525,
7378,-0.0640869,0.0489319,
7380,0.055542,0.048822,
7382,-0.057373,0.0486389,
7384,-0.00183105,0.048407,
7386,0.0311279,0.0484375,
7388,-0.0439453,0.0483704,
7390,-0.0378418,0.0481628,
7392,0.0524902,0.0484314,
7394,0.00915527,0.0482605,
7396,-0.0445557,0.0484619,
7398,-0.00305176,0.0482117,
7400,-0.00793457,0.0478638,
7402,0.0476074,0.0479492,
7404,0.020752,0.0477539,
7406,-0.12085,0.0479919,
7408,0.0695801,0.0479736,
7410,0.0372314,0.0478943,
7412,-0.0921631,0.048053,
7414,0.0366211,0.0479614,
7416,-0.057373,0.048175,
7418,0.0469971,0.0481995,
7420,0.0311279,0.0481689,
7422,-0.128174,0.0481689,
7424,0.0390625,0.047937,
7426,0.0604248,0.0481689,
7428,-0.0738525,0.0480286,
7430,0.106201,0.0482361,
7432,-0.0622559,0.0483521,
7434,0.0732422,0.0487427,
7436,0.0134277,0.0484253,
7438,-0.043335,0.0483704,
7440,-0.0439453,0.0484497,
7442,0.0567627,0.0485718,
7444,0.00488281,0.0483459,
7446,-0.0512695,0.0487976,
7448,-0.0585938,0.0489075,
7450,-0.0616455,0.0493713,
7452,0.0286865,0.0492004,
7454,0.0305176,0.0493958,
7456,-0.115356,0.0495239,
7458,0.0494385,0.0494141,
7460,0.0250244,0.049408,
7462,-0.0842285,0.0493042,
7464,0.0695801,0.0496887,
7466,-0.0604248,0.0497681,
7468,0.0439453,0.0497803,
7470,0.0445557,0.0499939,
7472,-0.108032,0.0499878,
7474,0.032959,0.0498352,
7476,0.0500488,0.0501892,
7478,-0.0360107,0.0499695,
7480,0.0518799,0.0495911,
7482,-0.0640869,0.0494629,
7484,0.00427246,0.0493103,
7486,0.0805664,0.0498352,
7488,-0.0250244,0.049585,
7490,-0.0500488,0.049762,
7492,0.0250244,0.0494324,
7494,0.0140381,0.0492981,
7496,-0.0286865,0.0494812,
7498,-0.0262451,0.0492798,
7500,-0.0384521,0.0494873,
7502,0.0219727,0.0490906,
7504,0.0311279,0.0489868,
7506,-0.114746,0.0490906,
7508,0.0610352,0.0491821,
7510,0.0494385,0.0494446,
7512,-0.0854492,0.0493103,
7514,0.0500488,0.0490845,
7516,-0.0506592,0.049054,
7518,0.0384521,0.0490112,
7520,0.0317383,0.0491943,
7522,-0.102539,0.0491211,
7524,0.032959,0.049054,
7526,0.0421143,0.0491882,
7528,-0.0805664,0.0495056,
7530,0.0878906,0.0497742,
7532,-0.0299072,0.0496033,
7534,0.0213623,0.0495483,
7536,0.0262451,0.0494812,
7538,-0.0622559,0.0496765,
7540,-0.0164795,0.0497314,
7542,0.0775146,0.0502014,
7544,0.00183105,0.0502014,
7546,-0.0726318,0.0507446,
7548,-0.0262451,0.0505615,
7550,-0.0183105,0.0503052,
7552,0.0616455,0.0504639,
7554,0.0152588,0.0502014,
7556,-0.126343,0.050415,
7558,0.0628662,0.0503418,
7560,0.055542,0.0505798,
7562,-0.10437,0.0509216,
7564,0.0616455,0.0508667,
7566,-0.0604248,0.0508301,
7568,0.0500488,0.0506165,
7570,0.0189209,0.0506165,
7572,-0.10498,0.0504822,
7574,0.0256348,0.0502991,
7576,0.0360107,0.0505066,
7578,-0.0476074,0.0503418,
7580,0.0714111,0.0505005,
7582,-0.090332,0.0508301,
7584,-0.0201416,0.0510132,
7586,0.088501,0.0515869,
7588,-0.00427246,0.0511902,
7590,-0.0842285,0.0516541,
7592,0.0469971,0.0515991,
7594,0.0360107,0.0518677,
7596,-0.0335693,0.0517578,
7598,-0.0354004,0.0520813,
7600,-0.0561523,0.0525635,
7602,0.0506592,0.052594,
7604,0.043335,0.0528198,
7606,-0.125732,0.0528687,
7608,0.0494385,0.0526672,
7610,0.0402832,0.0526978,
7612,-0.090332,0.0526794,
7614,0.0775146,0.0530884,
7616,-0.0567627,0.0530823,
7618,0.0482178,0.0530945,
7620,0.0244141,0.0530273,
7622,-0.0964355,0.05271,
7624,0.0213623,0.052533,
7626,0.0415039,0.0523438,
7628,-0.0756836,0.0523621,
7630,0.0726318,0.0520264,
7632,-0.0640869,0.0520447,
7634,0.00976563,0.0514099,
7636,0.0305176,0.0515808,
7638,-0.0177002,0.0513245,
7640,-0.0384521,0.0512695,
7642,0.0427246,0.0511292,
7644,-0.00976563,0.051178,
7646,-0.0286865,0.0509521,
7648,-0.0317383,0.0506836,
7650,-0.0299072,0.0503662,
7652,0.0646973,0.0507263,
7654,0.0268555,0.0506897,
7656,-0.12207,0.0507568,
7658,0.0561523,0.050824,
7660,0.055542,0.0511292,
7662,-0.0646973,0.0509338,
7664,0.0280762,0.0505188,
7666,-0.0738525,0.0506531,
7668,0.0427246,0.0506409,
7670,0.0311279,0.0505066,
7672,-0.13855,0.0508118,
7674,0.0140381,0.0506226,
7676,0.0231934,0.050354,
7678,-0.0360107,0.050354,
7680,0.0512695,0.0503479,
7682,-0.0646973,0.050354,
7684,-0.00610352,0.0503723,
7686,0.0457764,0.0500244,
7688,-0.0286865,0.050061,
7690,-0.0604248,0.0501648,
7692,0.0439453,0.050354,
7694,-0.00610352,0.0502747,
7696,-0.0653076,0.0506409,
7698,-0.00610352,0.0504395,
7700,-0.0463867,0.0505188,
7702,0.0292969,0.050592,
7704,0.0366211,0.050647,
7706,-0.102539,0.0505249,
7708,0.0408936,0.0503235,
7710,0.0622559,0.0504517,
7712,-0.0701904,0.0502991,
7714,0.043335,0.0502319,
7716,-0.0372314,0.0500977,
7718,0.0653076,0.0503662,
7720,0.022583,0.0502747,
7722,-0.102539,0.0502747,
7724,0.0177002,0.0501221,
7726,0.0524902,0.0502258,
7728,-0.0341797,0.049762,
7730,0.0231934,0.049115,
7732,-0.0695801,0.0495117,
7734,0.0164795,0.0494629,
7736,0.0341797,0.0495422,
7738,-0.0354004,0.0492737,
7740,-0.0482178,0.0495911,
7742,0.0305176,0.0491211,
7744,0.0292969,0.0493958,
7746,-0.0634766,0.0493042,
7748,-0.0323486,0.0493652,
7750,-0.010376,0.0492859,
7752,0.0360107,0.0490295,
7754,0.00854492,0.0489624,
7756,-0.115356,0.0488525,
7758,0.0634766,0.0488586,
7760,0.045166,0.0487549,
7762,-0.0482178,0.0481934,
7764,0.03479,0.0479248,
7766,-0.045166,0.0477722,
7768,0.0457764,0.0477295,
7770,0.0305176,0.0478455,
7772,-0.0952148,0.0477478,
7774,0.0115967,0.0476074,
7776,0.0244141,0.0474915,
7778,-0.0744629,0.04776,
7780,0.0610352,0.0476562,
7782,-0.065918,0.0474121,
7784,-0.00305176,0.0472412,
7786,0.03479,0.0467041,
7788,-0.00610352,0.0467224,
7790,-0.0512695,0.0463928,
7792,0.0506592,0.0464294,
7794,0.00244141,0.0460937,
7796,-0.0469971,0.046228,
7798,0.00732422,0.0459473,
7800,-0.0164795,0.0455505,
7802,0.0384521,0.0454285,
7804,0.0335693,0.0453308,
7806,-0.127563,0.0453491,
7808,0.0854492,0.0457092,
7810,0.0482178,0.0457886,
7812,-0.10376,0.0459229,
7814,0.078125,0.045929,
7816,-0.0701904,0.0460632,
7818,0.0439453,0.0460205,
7820,0.0311279,0.0460876,
7822,-0.142212,0.0465454,
7824,0.0195313,0.0465271,
7826,0.0390625,0.0465027,
7828,-0.0488281,0.0462341,
7830,0.0335693,0.0458435,
7832,-0.0708008,0.0459106,
7834,-0.000610352,0.0458191,
7836,0.0445557,0.0459595,
7838,-0.0256348,0.0460388,
7840,-0.0549316,0.0462036,
7842,0.0482178,0.0462585,
7844,0.0219727,0.0463806,
7846,-0.0518799,0.0466125,
7848,-0.0189209,0.0464844,
7850,-0.0244141,0.0464294,
7852,0.0506592,0.0462891,
7854,0.0250244,0.0462708,
7856,-0.124512,0.0462952,
7858,0.057373,0.0463074,
7860,0.0158691,0.0459106,
7862,-0.0872803,0.0461365,
7864,0.0921631,0.0467773,
7866,-0.0671387,0.0467102,
7868,0.0219727,0.0465027,
7870,0.0335693,0.0465271,
7872,-0.0897217,0.0460388,
7874,0.0299072,0.0461975,
7876,0.0720215,0.0466858,
7878,-0.0415039,0.0467407,
7880,0.0390625,0.0466187,
7882,-0.0567627,0.0465393,
7884,0.0274658,0.0467529,
7886,0.0299072,0.0465942,
7888,-0.0457764,0.0467651,
7890,-0.0372314,0.0465332,
7892,0.0341797,0.0464355,
7894,-0.0109863,0.0464844,
7896,-0.065918,0.0464905,
7898,-0.00610352,0.0464905,
7900,-0.0231934,0.0462585,
7902,0.0640869,0.0466064,
7904,0.0250244,0.0464905,
7906,-0.119629,0.0466614,
7908,0.067749,0.0469299,
7910,0.0561523,0.0468689,
7912,-0.0848389,0.0470154,
7914,0.0646973,0.047229,
7916,-0.0915527,0.0477722,
7918,0.0543213,0.0476624,
7920,0.0354004,0.0477905,
7922,-0.105591,0.047821,
7924,0.0134277,0.0477783,
7926,0.0366211,0.0476196,
7928,-0.0177002,0.0474548,
7930,0.045166,0.0476746,
7932,-0.0439453,0.0474182,
7934,0.0164795,0.0474182,
7936,0.0457764,0.0475342,
7938,-0.0140381,0.0473206,
7940,-0.0402832,0.0472412,
7942,0.0714111,0.0476501,
7944,0.00732422,0.0474304,
7946,-0.0708008,0.0475037,
7948,0.0256348,0.0474365,
7950,-0.055542,0.0478882,
7952,0.0250244,0.0477783,
7954,0.0341797,0.0480347,
7956,-0.112305,0.0480042,
7958,0.0476074,0.0478455,
7960,0.0378418,0.0477722,
7962,-0.0671387,0.0479614,
7964,0.0762939,0.0483765,
7966,-0.0738525,0.0486633,
7968,0.0372314,0.0485779,
7970,0.0518799,0.0487915,
7972,-0.105591,0.0488953,
7974,0.0152588,0.0489319,
7976,0.0494385,0.0491821,
7978,-0.020752,0.048645,
7980,0.0311279,0.0483459,
7982,-0.0445557,0.0481323,
7984,-0.020752,0.0483093,
7986,0.0518799,0.0484802,
7988,-0.00305176,0.0484497,
7990,-0.0714111,0.0486511,
7992,0.0286865,0.0484314,
7994,0.020752,0.0486145,
7996,-0.0775146,0.0489197,
7998,0.00488281,0.0488953,
8000,-0.03479,0.0490784,
8002,0.022583,0.0489197,
8004,0.0427246,0.0490112,
8006,-0.0970459,0.0487061,
8008,0.0396729,0.0482483,
8010,0.0561523,0.0483276,
8012,-0.0842285,0.0481323,
8014,0.0775146,0.0481262,
8016,-0.065918,0.0480835,
8018,0.0463867,0.0481079,
8020,0.0421143,0.0482178,
8022,-0.109253,0.0478882,
8024,0.0189209,0.0478821,
8026,0.0189209,0.0476807,
8028,-0.012207,0.0473145,
8030,0.0317383,0.0472961,
8032,-0.0646973,0.0472351,
8034,0.00793457,0.0473083,
8036,0.0366211,0.047229,
8038,0.00366211,0.0470093,
8040,-0.0500488,0.0469604,
8042,0.0531006,0.0470093,
8044,0.0366211,0.0471558,
8046,-0.0762939,0.0473999,
8048,0.00610352,0.0472717,
8050,-0.0421143,0.0474487,
8052,0.0256348,0.0471985,
8054,0.0421143,0.0473694,
8056,-0.110474,0.047229,
8058,0.0360107,0.0470154,
8060,0.03479,0.0472046,
8062,-0.0567627,0.0468994,
8064,0.0567627,0.0465454,
8066,-0.065918,0.0465332,
8068,0.0628662,0.0469421,
8070,0.03479,0.0469543,
8072,-0.0994873,0.047052,
8074,0.00366211,0.0467896,
8076,0.0463867,0.0465332,
8078,-0.0396729,0.0465149,
8080,0.0756836,0.0468811,
8082,-0.0665283,0.0469788,
8084,-0.0256348,0.0469604,
8086,0.0604248,0.0472656,
8088,-0.00488281,0.0468567,
8090,-0.0714111,0.0471985,
8092,0.0921631,0.0477783,
8094,0.00244141,0.0476929,
8096,-0.0793457,0.0478271,
8098,0.00244141,0.0477905,
8100,-0.0250244,0.0478088,
8102,0.0140381,0.0473083,
8104,0.0170898,0.047229,
8106,-0.125122,0.0472839,
8108,0.0646973,0.0472534,
8110,-0.0305176,0.0469971,
8112,-0.0823975,0.0469727,
8114,0.0408936,0.0467346,
8116,-0.0976563,0.0467957,
8118,0.00183105,0.0462708,
8120,0.0213623,0.0461304,
8122,-0.0787354,0.0458618,
8124,-0.0292969,0.0460205,
8126,0.0799561,0.0464539,
8128,-0.0561523,0.0468384,
8130,0.0463867,0.0468506,
8132,-0.0610352,0.0470215,
8134,0.0115967,0.0469727,
8136,0.012207,0.046637,
8138,-0.00793457,0.0465759,
8140,-0.0769043,0.0469421,
8142,0.00732422,0.0463013,
8144,0.0219727,0.0464478,
8146,-0.0964355,0.0467041,
8148,-0.0427246,0.046875,
8150,-0.0695801,0.0470154,
8152,-0.00915527,0.0468567,
8154,0.0231934,0.0467468,
8156,-0.113525,0.046759,
8158,0.0518799,0.0468018,
8160,0.0463867,0.0468872,
8162,-0.0854492,0.0470703,
8164,0.0689697,0.0469971,
8166,-0.045166,0.0467102,
8168,0.0427246,0.0467651,
8170,0.0244141,0.0464905,
8172,-0.111694,0.0465515,
8174,-0.0244141,0.0466431,
8176,0.0354004,0.0465027,
8178,-0.0170898,0.0464661,
8180,0.032959,0.0464844,
8182,-0.0512695,0.0465515,
8184,0.0268555,0.0466125,
8186,0.0585938,0.0466797,
8188,0.00366211,0.0466858,
8190,-0.0561523,0.0465332,
8192,0.100098,0.0472473,
8194,0.0860596,0.0479004,
8196,-0.136108,0.0484863,
8198,0.0152588,0.0485901,
8200,-0.0341797,0.048584,
8202,0.0421143,0.0487793,
8204,0.0170898,0.0485229,
8206,-0.140381,0.0489563,
8208,0.0292969,0.0488525,
8210,0.0323486,0.0486145,
8212,-0.0708008,0.0484802,
8214,0.078125,0.0484863,
8216,-0.0604248,0.0484314,
8218,0.0250244,0.0482178,
8220,0.0421143,0.0482178,
8222,-0.0823975,0.0479492,
8224,0.0177002,0.047937,
8226,0.0317383,0.0480652,
8228,-0.0177002,0.0481201,
8230,0.0286865,0.0480896,
8232,-0.0524902,0.0479675,
8234,0.0109863,0.047998,
8236,0.0476074,0.0481079,
8238,0.00915527,0.0481628,
8240,-0.0524902,0.0481873,
8242,0.0628662,0.0482849,
8244,0.0140381,0.0480591,
8246,-0.0628662,0.0479248,
8248,0.0457764,0.0483215,
8250,-0.0213623,0.048114,
8252,0.020752,0.0480652,
8254,0.032959,0.0479736,
8256,-0.102539,0.0478943,
8258,0.0683594,0.0482178,
8260,0.057373,0.0484436,
8262,-0.0695801,0.0485718,
8264,0.146484,0.049469,
8266,-0.0811768,0.0496216,
8268,0.0286865,0.0492798,
8270,0.0518799,0.0494507,
8272,-0.0891113,0.0493469,
8274,-0.00305176,0.0493408,
8276,-0.022583,0.0491028,
8278,-0.0689697,0.0493958,
8280,0.00244141,0.0486633,
8282,-0.0592041,0.0485901,
8284,-0.0286865,0.0486206,
8286,0.0262451,0.0482788,
8288,0.012207,0.0483521,
8290,-0.0457764,0.0480957,
8292,0.0762939,0.047937,
8294,0.0158691,0.0480713,
8296,-0.0848389,0.0481262,
8298,0.0274658,0.0483765,
8300,-0.0268555,0.0483948,
8302,0.0421143,0.0486755,
8304,0.03479,0.0488525,
8306,-0.10437,0.048645,
8308,0.0567627,0.0485657,
8310,0.00366211,0.0482971,
8312,-0.0708008,0.0481812,
8314,0.101929,0.0487915,
8316,-0.0750732,0.0485657,
8318,0.00671387,0.0486145,
8320,0.0341797,0.0487427,
8322,-0.0866699,0.048822,
8324,0.00610352,0.0485901,
8326,0.0604248,0.0483948,
8328,-0.0262451,0.0480957,
8330,0.0134277,0.0477661,
8332,-0.0622559,0.0477783,
8334,0.0384521,0.0480469,
8336,0.0402832,0.0483276,
8338,0.010376,0.0483521,
8340,-0.067749,0.0482605,
8342,0.055542,0.0487427,
8344,0.0152588,0.0486755,
8346,-0.0616455,0.0483276,
8348,0.0598145,0.0484985,
8350,-0.0463867,0.0482666,
8352,0.0354004,0.0485291,
8354,0.0476074,0.0487732,
8356,-0.115967,0.0487976,
8358,0.0286865,0.0485657,
8360,0.0360107,0.0484619,
8362,-0.057373,0.0481812,
8364,0.0793457,0.0482849,
8366,-0.0939941,0.0487732,
8368,0.0488281,0.0488342,
8370,0.0787354,0.0493774,
8372,-0.145874,0.0497192,
8374,0.00671387,0.0495422,
8376,0.057373,0.049762,
8378,-0.00854492,0.0496765,
8380,-0.0457764,0.0498047,
8382,-0.102539,0.0503174,
8384,0.00366211,0.0500854,
8386,0.0756836,0.0502563,
8388,-0.0274658,0.0504944,
8390,-0.119629,0.0511292,
8392,0.0726318,0.0508545,
8394,0.107422,0.0510681,
8396,0.0280762,0.0499878,
8398,0.0970459,0.0508057,
8400,-0.187378,0.0523376,
8402,0.0231934,0.0521484,
8404,0.142822,0.0534058,
8406,-0.143433,0.0534363,
8408,0.0341797,0.0534851,
8410,-0.0390625,0.0535522,
8412,-0.100708,0.0538513,
8414,-0.0250244,0.0533203,
8416,-0.088501,0.0536011,
8418,0.00976563,0.0534485,
8420,0.0311279,0.0533386,
8422,-0.098877,0.0535034,
8424,-0.0946045,0.0542725,
8426,0.0372314,0.0543274,
8428,0.0250244,0.0544006,
8430,0.0915527,0.0550293,
8432,-0.133057,0.055835,
8434,-0.0128174,0.0558533,
8436,0.0396729,0.0557739,
8438,0.0634766,0.0563171,
8440,-0.0543213,0.0563354,
8442,0.0952148,0.0566589,
8444,-0.00427246,0.0565613,
8446,-0.161133,0.0575439,
8448,0.0164795,0.057251,
8450,0.00793457,0.0571167,
8452,0.0500488,0.0574097,
8454,-0.0469971,0.05755,
8456,-0.194092,0.0584656,
8458,0.0469971,0.058252,
8460,0.123291,0.0589111,
8462,-0.134277,0.0595581,
8464,0.0915527,0.0590088,
8466,-0.106812,0.0592651,
8468,0.0848389,0.0598267,
8470,0.0396729,0.0597046,
8472,-0.116577,0.0599792,
8474,-0.010376,0.0600525,
8476,0.0769043,0.0605957,
8478,0.020752,0.0601135,
8480,-0.0714111,0.0608032,
8482,0.0714111,0.0609253,
8484,-0.00793457,0.0607178,
8486,0.0360107,0.0608154,
8488,0.0341797,0.0610352,
8490,-0.105591,0.0616333,
8492,0.0305176,0.0611755,
8494,-0.010376,0.0611206,
8496,-0.0878906,0.0611511,
8498,-0.0128174,0.0610046,
8500,0.022583,0.0609619,
8502,0.176392,0.0623047,
8504,-0.043335,0.0623901,
8506,-0.0262451,0.0616089,
8508,-0.00488281,0.0610901,
8510,0.0482178,0.0615356,
8512,-0.0500488,0.0613281,
8514,0.0354004,0.0606628,
8516,-0.136719,0.0612793,
8518,0.0012207,0.0612244,
8520,0.00183105,0.0609009,
8522,-0.105591,0.0610901,
8524,-0.020752,0.0612366,
8526,0.0604248,0.0612366,
8528,0.0109863,0.061084,
8530,-0.00244141,0.0609741,
8532,-0.0128174,0.0604797,
8534,0.0317383,0.0604126,
8536,0.00732422,0.060083,
8538,0.0219727,0.060199,
8540,-0.0689697,0.0602112,
8542,0.0958252,0.060614,
8544,0.0115967,0.0605774,
8546,-0.112915,0.0610901,
8548,0.0244141,0.0607361,
8550,-0.0799561,0.0610718,
8552,0.065918,0.061377,
8554,0.0567627,0.0614685,
8556,-0.135498,0.0616638,
8558,0.0567627,0.0619446,
8560,0.057373,0.0621582,
8562,-0.0311279,0.0618958,
8564,0.0939941,0.0620422,
8566,-0.100098,0.0621033,
8568,0.0286865,0.0619019,
8570,0.0469971,0.0615845,
8572,-0.0836182,0.0609619,
8574,-0.0115967,0.0610107,
8576,0.0274658,0.0607117,
8578,-0.0524902,0.0611511,
8580,0.0299072,0.0609924,
8582,-0.0274658,0.0602417,
8584,0.00549316,0.06026,
8586,0.0720215,0.0602234,
8588,0.0982666,0.0609314,
8590,-0.142822,0.0611633,
8592,0.0982666,0.0614197,
8594,-0.000610352,0.0603516,
8596,-0.0726318,0.0607971,
8598,0.0305176,0.0601318,
8600,-0.067749,0.0589355,
8602,0.00305176,0.0587341,
8604,-0.0146484,0.0574524,
8606,-0.112915,0.0571472,
8608,0.0469971,0.0572754,
8610,0.0378418,0.0572632,
8612,-0.0628662,0.0568848,
8614,0.0427246,0.0570618,
8616,-0.0598145,0.0567749,
8618,0.0427246,0.0571045,
8620,0.0170898,0.0569641,
8622,-0.0726318,0.0567017,
8624,-0.0286865,0.0560425,
8626,0.0567627,0.0562378,
8628,-0.0201416,0.056189,
8630,-0.020752,0.055481,
8632,-0.00427246,0.0541931,
8634,-0.00305176,0.0540955,
8636,0.0384521,0.0540833,
8638,0.043335,0.0538818,
8640,-0.0848389,0.054187,
8642,0.0598145,0.053833,
8644,0.0244141,0.0540344,
8646,-0.0854492,0.0532776,
8648,0.0524902,0.0536377,
8650,-0.0585938,0.0541443,
8652,0.0799561,0.0544434,
8654,0.0463867,0.0544373,
8656,-0.143433,0.0539307,
8658,0.0805664,0.0542664,
8660,0.022583,0.0532593,
8662,-0.0579834,0.0524963,
8664,0.0793457,0.0523743,
8666,-0.0701904,0.0520081,
8668,0.0439453,0.0515991,
8670,-0.00183105,0.0512207,
8672,-0.067749,0.0507324,
8674,0.0134277,0.0507629,
8676,0.098877,0.0509827,
8678,-0.0445557,0.0512207,
8680,-0.0463867,0.0509705,
8682,0.0457764,0.0507141,
8684,-0.0531006,0.0511658,
8686,0.0531006,0.0513367,
8688,-0.0128174,0.051123,
8690,-0.090332,0.0509705,
8692,0.043335,0.0510986,
8694,0.012207,0.0511169,
8696,-0.0970459,0.0512085,
8698,0.0378418,0.0514587,
8700,-0.0805664,0.0520386,
8702,0.0292969,0.0505676,
8704,0.0402832,0.0505371,
8706,-0.115967,0.0514343,
8708,0.0372314,0.0517578,
8710,0.0250244,0.0515259,
8712,-0.0628662,0.0516541,
8714,0.0805664,0.0521057,
8716,-0.0665283,0.0514038,
8718,0.0231934,0.0516235,
8720,0.0445557,0.0520508,
8722,-0.0646973,0.0516418,
8724,-0.00183105,0.0514526,
8726,0.0494385,0.0513428,
8728,-0.022583,0.0514587,
8730,-0.00915527,0.0515259,
8732,0.0244141,0.0516418,
8734,0.0177002,0.0515015,
8736,0.0805664,0.0522339,
8738,-0.00854492,0.0520996,
8740,-0.0976563,0.0523865,
8742,0.10498,0.052478,
8744,0.0524902,0.052887,
8746,-0.139771,0.0531555,
8748,0.0262451,0.0531738,
8750,-0.0982666,0.0533569,
8752,0.0115967,0.0528137,
8754,0.0274658,0.0525208,
8756,-0.10498,0.0522156,
8758,0.0268555,0.0519165,
8760,0.0140381,0.0514832,
8762,-0.0756836,0.0519287,
8764,0.0732422,0.0517212,
8766,-0.0695801,0.051416,
8768,0.0201416,0.0513306,
8770,0.0317383,0.051178,
8772,-0.0708008,0.0510498,
8774,-0.0268555,0.0512024,
8776,0.0457764,0.0513855,
8778,0.0012207,0.0508728,
8780,-0.0115967,0.0506897,
8782,-0.032959,0.0507446,
8784,-0.0140381,0.0508301,
8786,0.0500488,0.0506104,
8788,0.0512695,0.0501404,
8790,-0.0976563,0.0496887,
8792,0.0744629,0.0494507,
8794,0.0396729,0.0498413,
8796,-0.0823975,0.049939,
8798,0.0567627,0.0502014,
8800,-0.0592041,0.050116,
8802,0.0439453,0.0505249,
8804,0.0585938,0.0509644,
8806,-0.115967,0.0509949,
8808,0.0457764,0.0509827,
8810,0.0360107,0.0509644,
8812,-0.0585938,0.0509216,
8814,0.0830078,0.0513245,
8816,-0.0823975,0.0515503,
8818,0.00854492,0.0512085,
8820,0.0506592,0.0515442,
8822,-0.0830078,0.0516479,
8824,-0.0561523,0.0519226,
8826,0.045166,0.0518066,
8828,-0.0195313,0.0518005,
8830,-0.0244141,0.0518372,
8832,-0.0396729,0.0521912,
8834,-0.0305176,0.0524658,
