Sara-C-Musc-ABC-L01
Gráfico creado el:2026-06-09 18:56:17.279
Registro en:2026-06-09 18:56:41.070
2 mseg/muestras
2 canales
EMG
mV
EMG Integrado
mV-sec
milliSec,CH1,CH40,
,202768 samples,202768 samples,
0,0.0158691,0.000158691,
2,-0.0665283,0.000823975,
4,0.00610352,0.00088501,
6,0.00915527,0.000976563,
8,-0.0292969,0.00126953,
10,0.0317383,0.00158691,
12,-0.0238037,0.00182495,
14,0.0012207,0.00183716,
16,0.0219727,0.00205688,
18,-0.0341797,0.00239868,
20,-0.0183105,0.00258179,
22,0.0244141,0.00282593,
24,0.0012207,0.00283813,
26,-0.0238037,0.00307617,
28,-0.0164795,0.00324097,
30,-0.0109863,0.00335083,
32,0.0250244,0.00360107,
34,0.022583,0.0038269,
36,-0.0561523,0.00438843,
38,0.0317383,0.00470581,
40,0.0274658,0.00498047,
42,-0.0463867,0.00544434,
44,0.00915527,0.00553589,
46,-0.0213623,0.00574951,
48,0.0244141,0.00599365,
50,0.0170898,0.00616455,
52,-0.0604248,0.0067688,
54,0.0140381,0.00690918,
56,0.0268555,0.00717773,
58,-0.0280762,0.0074585,
60,0.022583,0.00768433,
62,-0.0128174,0.0078125,
64,-0.00183105,0.00783081,
66,0.0134277,0.00796509,
68,-0.0360107,0.0083252,
70,-0.0256348,0.00858154,
72,0.0158691,0.00874023,
74,0.0177002,0.00891724,
76,-0.0402832,0.00932007,
78,-0.0244141,0.00956421,
80,-0.00427246,0.00960693,
82,0.0195313,0.00980225,
84,0.00549316,0.00985718,
86,-0.0604248,0.0104614,
88,0.0292969,0.0107544,
90,0.0183105,0.0109375,
92,-0.0592041,0.0115295,
94,0.00793457,0.0116089,
96,-0.0195313,0.0118042,
98,0.0189209,0.0119934,
100,0.0115967,0.0121094,
102,-0.0598145,0.0127075,
104,0.012207,0.0128296,
106,0.0170898,0.0130005,
108,-0.0299072,0.0132996,
110,0.0317383,0.0136169,
112,-0.0286865,0.0139038,
114,0.00244141,0.0139282,
116,0.0140381,0.0140686,
118,-0.0323486,0.0143921,
120,-0.0189209,0.0145813,
122,0.0238037,0.0148193,
124,0.00793457,0.0148987,
126,-0.0213623,0.0151123,
128,-0.00366211,0.0151489,
130,-0.00610352,0.01521,
132,0.0219727,0.0154297,
134,0.0158691,0.0155884,
136,-0.0506592,0.016095,
138,0.0268555,0.0163635,
140,0.0250244,0.0166138,
142,-0.0512695,0.0171265,
144,-0.00488281,0.0171753,
146,-0.0164795,0.0173401,
148,0.0177002,0.0175171,
150,0.0152588,0.0176697,
152,-0.043335,0.018103,
154,-0.000610352,0.0181091,
156,0.0146484,0.0182556,
158,-0.0195313,0.0184509,
160,0.0170898,0.0186218,
162,-0.0280762,0.0189026,
164,0.00305176,0.0189331,
166,0.012207,0.0190552,
168,-0.0402832,0.019458,
170,-0.0280762,0.0197388,
172,0.0164795,0.0199036,
174,0.010376,0.0200073,
176,-0.0238037,0.0202454,
178,-0.0195313,0.0204407,
180,-0.00793457,0.02052,
182,0.0189209,0.0207092,
184,0.0177002,0.0208862,
186,-0.055542,0.0214417,
188,0.0262451,0.0217041,
190,0.0268555,0.0219727,
192,-0.0439453,0.0224121,
194,0.0164795,0.0225769,
196,-0.0274658,0.0228516,
198,0.0268555,0.0231201,
200,0.00732422,0.0230347,
202,-0.0494385,0.0228638,
204,0.0109863,0.0229126,
206,0.0219727,0.0230408,
208,-0.0317383,0.0230652,
210,0.0268555,0.0230164,
212,-0.0250244,0.0230286,
214,0.00610352,0.0230774,
216,0.0183105,0.0230408,
218,-0.0152588,0.0228516,
220,-0.032959,0.022998,
222,0.0189209,0.0229431,
224,0.022583,0.0231567,
226,-0.0250244,0.0231689,
228,-0.0274658,0.0232788,
230,-0.0146484,0.0233154,
232,0.0244141,0.0233093,
234,0.00732422,0.0231567,
236,-0.0549316,0.0231445,
238,0.00915527,0.0229187,
240,0.0195313,0.0228394,
242,-0.0494385,0.0228699,
244,-0.00671387,0.0228455,
246,-0.0195313,0.0228271,
248,0.0146484,0.0227295,
250,0.0128174,0.0226868,
252,-0.0579834,0.0226624,
254,0.0012207,0.0225342,
256,0.0201416,0.022467,
258,-0.0158691,0.022345,
260,0.0170898,0.02229,
262,-0.0256348,0.0224182,
264,0.00854492,0.0224854,
266,0.0189209,0.0225403,
268,-0.0268555,0.0224487,
270,-0.0268555,0.0224609,
272,0.0274658,0.0225769,
274,0.0189209,0.0225891,
276,-0.0189209,0.0223755,
278,-0.0134277,0.0222656,
280,-0.0128174,0.0223511,
282,0.0238037,0.0223938,
284,0.0213623,0.0225525,
286,-0.0592041,0.0225403,
288,0.0256348,0.0225037,
290,0.0170898,0.0224915,
292,-0.0524902,0.0224243,
294,0.00976563,0.0224426,
296,-0.0280762,0.0225281,
298,0.0134277,0.0224731,
300,0.0109863,0.022467,
302,-0.067749,0.0225464,
304,0.00427246,0.022467,
306,0.0134277,0.0224304,
308,-0.0280762,0.0224121,
310,0.0280762,0.0223755,
312,-0.0305176,0.0223938,
314,-0.0012207,0.0223816,
316,0.0195313,0.0224365,
318,-0.0164795,0.0222778,
320,-0.0244141,0.0223328,
322,0.0311279,0.022406,
324,0.00244141,0.0223511,
326,-0.0323486,0.0224609,
328,-0.0134277,0.0225586,
330,-0.0146484,0.022644,
332,0.0183105,0.0226074,
334,0.00915527,0.0225403,
336,-0.0616455,0.0226501,
338,0.0231934,0.0226135,
340,0.0177002,0.0225403,
342,-0.0457764,0.0224854,
344,0.0250244,0.0226868,
346,-0.0256348,0.0227783,
348,0.00549316,0.0226562,
350,0.0152588,0.0226562,
352,-0.0561523,0.0227844,
354,0.00732422,0.0228516,
356,0.00915527,0.0227966,
358,-0.0274658,0.022876,
360,0.0146484,0.0228516,
362,-0.0323486,0.0228943,
364,-0.00427246,0.0229065,
366,0.0158691,0.0229431,
368,-0.0280762,0.022821,
370,-0.0415039,0.0229553,
372,0.0231934,0.0230225,
374,0.0140381,0.0230591,
376,-0.045166,0.0232727,
378,-0.020752,0.0232849,
380,-0.010376,0.0233093,
382,0.0152588,0.0232727,
384,0.0109863,0.0232056,
386,-0.0708008,0.0233582,
388,0.0274658,0.0233704,
390,0.0201416,0.0233032,
392,-0.0512695,0.0233765,
394,0.0164795,0.0233765,
396,-0.0323486,0.0234253,
398,0.0170898,0.0233276,
400,0.0164795,0.0234192,
402,-0.0537109,0.0234619,
404,0.00427246,0.0233948,
406,0.0183105,0.0233582,
408,-0.022583,0.0232666,
410,0.020752,0.0232056,
412,-0.0299072,0.0232544,
414,0.00549316,0.0232483,
416,0.0219727,0.0232849,
418,-0.0213623,0.0233459,
420,-0.0305176,0.0233215,
422,0.022583,0.0233582,
424,0.00915527,0.0232239,
426,-0.0256348,0.02323,
428,-0.00427246,0.022998,
430,-0.0238037,0.0230896,
432,0.0256348,0.0231018,
434,0.0256348,0.0232849,
436,-0.0665283,0.0234009,
438,0.0268555,0.0235779,
440,0.0183105,0.0235657,
442,-0.0524902,0.0235962,
444,0.0250244,0.0237793,
446,-0.0323486,0.0239075,
448,0.0109863,0.0238708,
450,0.0115967,0.0238586,
452,-0.065918,0.023938,
454,0.000610352,0.0239319,
456,0.0177002,0.0239075,
458,-0.012207,0.0238708,
460,0.0170898,0.0238708,
462,-0.0317383,0.0239319,
464,-0.00427246,0.0238892,
466,0.0213623,0.0239136,
468,-0.0152588,0.0237976,
470,-0.0305176,0.0238342,
472,0.0134277,0.0236938,
474,0.0146484,0.0236511,
476,-0.0402832,0.0238647,
478,-0.010376,0.0238342,
480,-0.0128174,0.0238342,
482,0.0146484,0.0237427,
484,0.0158691,0.0236877,
486,-0.0549316,0.023645,
488,0.0238037,0.0236267,
490,0.0201416,0.0236572,
492,-0.0537109,0.0236694,
494,0.0158691,0.0237305,
496,-0.0280762,0.0237305,
498,0.0146484,0.0237427,
500,0.0158691,0.0237915,
502,-0.0549316,0.0236633,
504,-0.00366211,0.0236572,
506,0.0268555,0.0237915,
508,-0.0140381,0.0236511,
510,0.0177002,0.0235474,
512,-0.0158691,0.0234009,
514,-0.00427246,0.0234314,
516,0.0231934,0.023468,
518,-0.00549316,0.0233582,
520,-0.0445557,0.0235596,
522,0.0280762,0.0235291,
524,0.0183105,0.0236877,
526,-0.0323486,0.0236877,
528,-0.0189209,0.0237427,
530,-0.010376,0.0237,
532,0.0299072,0.0238159,
534,0.00793457,0.0238037,
536,-0.0598145,0.0237854,
538,0.03479,0.0239014,
540,0.0219727,0.0239441,
542,-0.0457764,0.0239441,
544,0.022583,0.0239197,
546,-0.020752,0.0238708,
548,0.012207,0.023938,
550,0.0140381,0.0239258,
552,-0.0543213,0.0239075,
554,0.00244141,0.0238586,
556,0.0164795,0.0239319,
558,-0.0115967,0.0237732,
560,0.0115967,0.0237427,
562,-0.0274658,0.0236938,
564,0.00366211,0.0236877,
566,0.0195313,0.0237244,
568,-0.0189209,0.0236328,
570,-0.0323486,0.0235413,
572,0.0317383,0.0236267,
574,0.0109863,0.0235962,
576,-0.0360107,0.0235046,
578,-0.0109863,0.023407,
580,-0.00915527,0.0233948,
582,0.0250244,0.0234924,
584,0.0189209,0.0235718,
586,-0.0634766,0.0234985,
588,0.00976563,0.0233215,
590,0.0262451,0.0233826,
592,-0.0421143,0.023291,
594,0.0231934,0.0233582,
596,-0.0317383,0.0233521,
598,0.0134277,0.0233154,
600,0.00976563,0.0232483,
602,-0.045166,0.0231628,
604,-0.0012207,0.0231323,
606,0.0201416,0.0231506,
608,-0.0195313,0.0231201,
610,0.0195313,0.0231079,
612,-0.0280762,0.0230896,
614,0,0.0230347,
616,0.0213623,0.0230286,
618,-0.00488281,0.0228638,
620,-0.0360107,0.0229187,
622,0.0292969,0.0229858,
624,0.0158691,0.023053,
626,-0.0311279,0.0231079,
628,-0.00671387,0.0231323,
630,-0.0109863,0.0230042,
632,0.0213623,0.0229614,
634,0.0238037,0.0229431,
636,-0.0598145,0.022876,
638,0.0311279,0.0229187,
640,0.0183105,0.0229187,
642,-0.0415039,0.0228088,
644,0.0421143,0.0229797,
646,-0.0274658,0.0229309,
648,0.0244141,0.0230652,
650,0.00976563,0.0230469,
652,-0.0610352,0.022998,
654,0.00305176,0.0230225,
656,0.0219727,0.0230652,
658,-0.0213623,0.0231567,
660,0.00793457,0.0230652,
662,-0.0292969,0.0230408,
664,-0.00427246,0.0230408,
666,0.0195313,0.0230225,
668,0.000610352,0.022876,
670,-0.03479,0.0229187,
672,0.0170898,0.0229553,
674,0.022583,0.0230347,
676,-0.0366211,0.022998,
678,-0.020752,0.0231018,
680,-0.0177002,0.0231506,
682,0.0299072,0.0233032,
684,0.00305176,0.023175,
686,-0.0708008,0.0233337,
688,0.0274658,0.0233704,
690,0.00915527,0.0232605,
692,-0.0415039,0.0231384,
694,0.0244141,0.0232239,
696,-0.0372314,0.0233154,
698,0.00793457,0.0232483,
700,0.00854492,0.023175,
702,-0.0518799,0.0231445,
704,-0.00610352,0.0231689,
706,0.0134277,0.0230347,
708,-0.0189209,0.0230835,
710,0.00976563,0.0230042,
712,-0.0250244,0.0230957,
714,-0.000610352,0.0230591,
716,0.0158691,0.0229858,
718,-0.0146484,0.0230774,
720,-0.032959,0.0229614,
722,0.0213623,0.0228943,
724,0.0170898,0.0228821,
726,-0.0360107,0.0229187,
728,-0.0146484,0.022876,
730,-0.0170898,0.0229431,
732,0.0183105,0.0228271,
734,0.0183105,0.0229309,
736,-0.0720215,0.023053,
738,0.0396729,0.0231018,
740,0.0109863,0.0229919,
742,-0.0378418,0.0229126,
744,0.0299072,0.0229858,
746,-0.0299072,0.0230774,
748,0.0152588,0.0231079,
750,0.010376,0.0230713,
752,-0.0512695,0.0230408,
754,-0.00671387,0.0230835,
756,0.0115967,0.0230347,
758,-0.0189209,0.0231079,
760,0.00366211,0.0230286,
762,-0.0238037,0.0229919,
764,0.00305176,0.0229858,
766,0.0152588,0.0229431,
768,-0.00976563,0.0228516,
770,-0.0341797,0.0228699,
772,0.0250244,0.0228027,
774,0.0177002,0.0228699,
776,-0.0415039,0.0229248,
778,-0.00488281,0.0228638,
780,-0.0140381,0.0229126,
782,0.0183105,0.0228455,
784,0.012207,0.0227783,
786,-0.0543213,0.0226868,
788,0.0262451,0.0228516,
790,0.0146484,0.0227356,
792,-0.0445557,0.02276,
794,0.0195313,0.0227234,
796,-0.0268555,0.0226746,
798,0.00793457,0.0226196,
800,0.022583,0.0227478,
802,-0.0488281,0.0227844,
804,-0.00488281,0.022821,
806,0.0109863,0.0227295,
808,0.00183105,0.0225525,
810,0.00854492,0.0224426,
812,-0.0305176,0.022467,
814,0.00366211,0.0225037,
816,0.0164795,0.0224548,
818,-0.0115967,0.022522,
820,-0.0280762,0.0224426,
822,0.0305176,0.0224548,
824,0.012207,0.0224182,
826,-0.032959,0.0224365,
828,-0.00671387,0.0224365,
830,-0.0177002,0.0225037,
832,0.0183105,0.0224731,
834,0.0164795,0.0223999,
836,-0.065918,0.0224609,
838,0.0146484,0.0222961,
840,0.0164795,0.0222778,
842,-0.0427246,0.02229,
844,0.0262451,0.0221313,
846,-0.0341797,0.0221985,
848,0.0183105,0.0221375,
850,0.0183105,0.0222229,
852,-0.0537109,0.0221497,
854,-0.00610352,0.0221802,
856,0.020752,0.022168,
858,-0.00244141,0.0219788,
860,0.00366211,0.021936,
862,-0.0268555,0.0219116,
864,0.00183105,0.0218872,
866,0.0177002,0.0218689,
868,0.000610352,0.0218689,
870,-0.0402832,0.0219238,
872,0.0292969,0.0220459,
874,0.0195313,0.0220154,
876,-0.0457764,0.0221069,
878,-0.00854492,0.0219849,
880,-0.0158691,0.0219666,
882,0.0280762,0.0219482,
884,0.012207,0.0220398,
886,-0.0762939,0.0220947,
888,0.0164795,0.0219849,
890,0.0250244,0.0221436,
892,-0.0421143,0.0221497,
894,0.0250244,0.0221558,
896,-0.0341797,0.0221252,
898,0.0183105,0.022229,
900,0.0177002,0.0223206,
902,-0.0469971,0.0222717,
904,-0.00183105,0.022229,
906,0.0286865,0.0223816,
908,-0.0128174,0.0223206,
910,0.00671387,0.02229,
912,-0.0274658,0.0223145,
914,0.00793457,0.0223877,
916,0.022583,0.0224548,
918,0.00244141,0.0223328,
920,-0.0372314,0.0223755,
922,0.020752,0.0223694,
924,0.0402832,0.0226013,
926,-0.0439453,0.0226807,
928,-0.00915527,0.0226257,
930,-0.0177002,0.0226318,
932,0.022583,0.0226746,
934,0.0195313,0.0226868,
936,-0.0695801,0.0226624,
938,0.0244141,0.0225098,
940,0.00854492,0.0224854,
942,-0.0366211,0.0224731,
944,0.0140381,0.0223145,
946,-0.0189209,0.0222046,
948,-0.00183105,0.0220703,
950,0.00610352,0.0220276,
952,-0.0421143,0.021936,
954,-0.00915527,0.0219604,
956,0.0115967,0.0219604,
958,-0.00549316,0.0218262,
960,0.00366211,0.0218262,
962,-0.0219727,0.0218079,
964,-0.00915527,0.0218689,
966,0.0244141,0.0219604,
968,0.00549316,0.0219177,
970,-0.0317383,0.0218933,
972,0.0231934,0.021875,
974,0.0280762,0.0219788,
976,-0.0427246,0.021991,
978,-0.00427246,0.0219849,
980,-0.0219727,0.0220642,
982,0.0201416,0.0220825,
984,0.0146484,0.0221069,
986,-0.0665283,0.022229,
988,0.0140381,0.0221069,
990,0.0238037,0.0221985,
992,-0.032959,0.0220825,
994,0.0366211,0.0222534,
996,-0.0360107,0.022345,
998,0.0189209,0.0224548,
1000,0.0268555,0.0224976,
1002,-0.0494385,0.0225037,
1004,-0.010376,0.0225586,
1006,0.0189209,0.0226379,
1008,-0.012207,0.0227417,
1010,-0.00244141,0.0226807,
1012,-0.0256348,0.0226318,
1014,-0.00488281,0.022644,
1016,0.0250244,0.0227295,
1018,0.00488281,0.0226624,
1020,-0.0299072,0.0226807,
1022,0.0286865,0.0226624,
1024,0.0274658,0.0228149,
1026,-0.0463867,0.0229492,
1028,0.00549316,0.022937,
1030,-0.0140381,0.0229004,
1032,0.0158691,0.022876,
1034,0.0134277,0.0228455,
1036,-0.0640869,0.0228271,
1038,0.022583,0.0229065,
1040,0.022583,0.0229675,
1042,-0.03479,0.0228882,
1044,0.0213623,0.0228394,
1046,-0.0286865,0.0227844,
1048,0.0140381,0.0227417,
1050,0.0183105,0.0227417,
1052,-0.0469971,0.0226746,
1054,-0.012207,0.0227356,
1056,0.0170898,0.022699,
1058,-0.00305176,0.0227051,
1060,-0.00732422,0.0227417,
1062,-0.0195313,0.0226685,
1064,0.00549316,0.0227051,
1066,0.0280762,0.0228088,
1068,-0.00183105,0.022821,
1070,-0.0488281,0.0229065,
1072,0.0408936,0.0230225,
1074,0.0262451,0.0230896,
1076,-0.0561523,0.0231934,
1078,-0.00305176,0.0231384,
1080,-0.0250244,0.02323,
1082,0.0109863,0.0230591,
1084,0.0152588,0.0230896,
1086,-0.0592041,0.0229187,
1088,0.0201416,0.0229553,
1090,0.00366211,0.0227417,
1092,-0.03479,0.0226685,
1094,0.0286865,0.0227051,
1096,-0.0341797,0.0227051,
1098,0.00915527,0.0226135,
1100,0.0146484,0.022583,
1102,-0.0500488,0.0226135,
1104,-0.0170898,0.0227661,
1106,0.020752,0.0226868,
1108,-0.00488281,0.0226074,
1110,0,0.0225403,
1112,-0.0286865,0.0225525,
1114,-0.00732422,0.0225464,
1116,0.0250244,0.0225708,
1118,-0.00244141,0.0225708,
1120,-0.045166,0.0226501,
1122,0.0305176,0.0227478,
1124,0.0170898,0.0225159,
1126,-0.0512695,0.0225891,
1128,0.0128174,0.0226257,
1130,-0.0268555,0.0227173,
1132,0.0213623,0.0227051,
1134,0.010376,0.0226135,
1136,-0.0622559,0.0225403,
1138,0.0164795,0.0224609,
1140,0.0170898,0.0225464,
1142,-0.0396729,0.0225769,
1144,0.0219727,0.0226562,
1146,-0.0292969,0.02276,
1148,0.0128174,0.0228699,
1150,0.0195313,0.0230042,
1152,-0.0402832,0.0229858,
1154,-0.00732422,0.0229675,
1156,0.0244141,0.0230957,
1158,0.0109863,0.0231506,
1160,-0.000610352,0.0231201,
1162,-0.0158691,0.0230591,
1164,-0.0177002,0.0231445,
1166,0.0189209,0.0230896,
1168,0.0177002,0.0232117,
1170,-0.0537109,0.0234314,
1172,0.0280762,0.0234802,
1174,0.0262451,0.0234619,
1176,-0.0500488,0.0235352,
1178,0.00244141,0.0235168,
1180,-0.020752,0.0235046,
1182,0.0164795,0.023468,
1184,0.0189209,0.0235107,
1186,-0.0708008,0.0235535,
1188,0.0170898,0.023584,
1190,0.020752,0.0235535,
1192,-0.0378418,0.0236023,
1194,0.0280762,0.0235168,
1196,-0.03479,0.0235046,
1198,0.0152588,0.023468,
1200,0.0170898,0.0233704,
1202,-0.0415039,0.023291,
1204,-0.0201416,0.0233887,
1206,0.0262451,0.0234619,
1208,0.00244141,0.0233643,
1210,-0.00915527,0.0234314,
1212,-0.0231934,0.023407,
1214,0.00732422,0.0234314,
1216,0.00854492,0.0232666,
1218,0.0140381,0.0233582,
1220,-0.0421143,0.0234802,
1222,0.0378418,0.0235718,
1224,0.0219727,0.0235168,
1226,-0.0463867,0.0235168,
1228,0.00244141,0.0234863,
1230,-0.0286865,0.0236328,
1232,0.0286865,0.023761,
1234,0.0195313,0.023822,
1236,-0.0671387,0.0238525,
1238,0.012207,0.0237488,
1240,0.0183105,0.0237061,
1242,-0.0323486,0.0236816,
1244,0.0219727,0.0236877,
1246,-0.0274658,0.0236755,
1248,0.0128174,0.0236633,
1250,0.0177002,0.0236572,
1252,-0.0421143,0.0236084,
1254,-0.0177002,0.0236633,
1256,0.0201416,0.0236938,
1258,-0.00793457,0.0237427,
1260,-0.0177002,0.0238464,
1262,-0.022583,0.023877,
1264,-0.00244141,0.0238464,
1266,0.0244141,0.0238098,
1268,0.012207,0.0239136,
1270,-0.045166,0.023877,
1272,0.03479,0.0238159,
1274,0.0140381,0.0236938,
1276,-0.0494385,0.0236267,
1278,0.0146484,0.0237427,
1280,-0.0238037,0.0237305,
1282,0.0158691,0.0237793,
1284,0.0146484,0.0237732,
1286,-0.0622559,0.0238037,
1288,0.0152588,0.0237549,
1290,0.0170898,0.0238892,
1292,-0.0341797,0.0238831,
1294,0.0183105,0.0237793,
1296,-0.0274658,0.0237122,
1298,0.0189209,0.0238098,
1300,0.0213623,0.023877,
1302,-0.0384521,0.023761,
1304,-0.0146484,0.0237366,
1306,0.0323486,0.0238525,
1308,0.00915527,0.0238953,
1310,-0.00488281,0.0239441,
1312,-0.0256348,0.0239136,
1314,0.00427246,0.0238831,
1316,0.0183105,0.0238159,
1318,0.00305176,0.023822,
1320,-0.0506592,0.023877,
1322,0.0286865,0.0238586,
1324,0.0189209,0.023877,
1326,-0.0506592,0.0238708,
1328,0.00488281,0.0237915,
1330,-0.0170898,0.0236938,
1332,0.0189209,0.0236694,
1334,0.0164795,0.0237305,
1336,-0.0616455,0.0237244,
1338,0.0183105,0.0237427,
1340,0.0238037,0.0238098,
1342,-0.0238037,0.0236511,
1344,0.0341797,0.0237732,
1346,-0.0299072,0.0237793,
1348,0.00976563,0.0237488,
1350,0.0238037,0.0237915,
1352,-0.0335693,0.0237244,
1354,-0.0158691,0.0238098,
1356,0.0201416,0.0237671,
1358,0.0140381,0.0237976,
1360,-0.00915527,0.0238831,
1362,-0.0177002,0.0239014,
1364,-0.00549316,0.0237793,
1366,0.0140381,0.0237305,
1368,0.0152588,0.0237061,
1370,-0.0616455,0.0237854,
1372,0.0372314,0.023877,
1374,0.0201416,0.0238159,
1376,-0.0604248,0.0239197,
1378,0.00549316,0.0239502,
1380,-0.0238037,0.0239807,
1382,0.0238037,0.024054,
1384,0.0152588,0.0240173,
1386,-0.0665283,0.0239746,
1388,0.0177002,0.0239807,
1390,0.00915527,0.0238647,
1392,-0.0299072,0.0237854,
1394,0.0256348,0.023761,
1396,-0.0341797,0.0237549,
1398,0.00549316,0.0236572,
1400,0.0177002,0.0236633,
1402,-0.0427246,0.0236755,
1404,-0.0231934,0.0237061,
1406,0.0158691,0.0236023,
1408,0.00610352,0.0236389,
1410,-0.0262451,0.0238098,
1412,-0.0262451,0.0238403,
1414,-0.00854492,0.0238525,
1416,0.0134277,0.0239014,
1418,0.010376,0.0238647,
1420,-0.0616455,0.0240601,
1422,0.0311279,0.0239929,
1424,0.0274658,0.0240479,
1426,-0.0598145,0.0241821,
1428,0.00488281,0.0242065,
1430,-0.0213623,0.0241333,
1432,0.0128174,0.0239746,
1434,0.0238037,0.0240173,
1436,-0.0689697,0.0240356,
1438,0.00183105,0.0239319,
1440,0.0286865,0.0240356,
1442,-0.0360107,0.0240723,
1444,0.0305176,0.0241577,
1446,-0.0292969,0.024176,
1448,0.010376,0.0241516,
1450,0.0219727,0.0241943,
1452,-0.032959,0.0241028,
1454,-0.0256348,0.0241821,
1456,0.0231934,0.0242126,
1458,0.00732422,0.0242065,
1460,-0.0189209,0.0242188,
1462,-0.0286865,0.0242798,
1464,-0.00671387,0.0243225,
1466,0.0231934,0.0243103,
1468,0.0164795,0.024353,
1470,-0.0561523,0.0244629,
1472,0.0317383,0.0244324,
1474,0.020752,0.0244995,
1476,-0.0549316,0.0245544,
1478,0.000610352,0.0244141,
1480,-0.0244141,0.0244202,
1482,0.0305176,0.0245667,
1484,0.0109863,0.02453,
1486,-0.0683594,0.0245911,
1488,0.00854492,0.0245239,
1490,0.00854492,0.0244385,
1492,-0.0274658,0.0243713,
1494,0.0164795,0.024353,
1496,-0.0311279,0.0243896,
1498,0.00427246,0.0242432,
1500,0.0140381,0.0241699,
1502,-0.0366211,0.0241516,
1504,-0.0183105,0.0241882,
1506,0.0177002,0.0240417,
1508,0.0177002,0.0241272,
1510,-0.0231934,0.0243103,
1512,-0.0244141,0.0242981,
1514,-0.00488281,0.0243042,
1516,0.0164795,0.0242859,
1518,0.00976563,0.024353,
1520,-0.0622559,0.024469,
1522,0.03479,0.02453,
1524,0.0201416,0.0245422,
1526,-0.0500488,0.0245361,
1528,0.0109863,0.0245972,
1530,-0.0262451,0.0246887,
1532,0.0164795,0.0246643,
1534,0.0189209,0.0246887,
1536,-0.0738525,0.0248108,
1538,0.010376,0.0247314,
1540,0.0244141,0.0247375,
1542,-0.0341797,0.0248413,
1544,0.0408936,0.0249084,
1546,-0.0286865,0.0248962,
1548,0.00732422,0.0248718,
1550,0.0115967,0.0247498,
1552,-0.0354004,0.0247681,
1554,-0.0231934,0.0248413,
1556,0.0213623,0.0248535,
1558,-0.00244141,0.0247375,
1560,-0.0219727,0.0248657,
1562,-0.0244141,0.0249329,
1564,-0.0244141,0.0251221,
1566,0.0286865,0.0252686,
1568,0.0170898,0.0252869,
1570,-0.0579834,0.0252502,
1572,0.0238037,0.025116,
1574,0.0219727,0.0251343,
1576,-0.0549316,0.0250793,
1578,0.0128174,0.0251526,
1580,-0.0317383,0.0252319,
1582,0.0146484,0.0251404,
1584,0.0195313,0.0251831,
1586,-0.0628662,0.0251465,
1588,-0.000610352,0.0249756,
1590,0.0256348,0.0251404,
1592,-0.0170898,0.0250122,
1594,0.00549316,0.0248108,
1596,-0.020752,0.0246765,
1598,0.00915527,0.0247131,
1600,0.022583,0.024762,
1602,-0.0354004,0.0246887,
1604,-0.0244141,0.0247009,
1606,0.0280762,0.024823,
1608,0.0244141,0.0250061,
1610,-0.0274658,0.0250183,
1612,-0.0183105,0.024939,
1614,0.00183105,0.0248718,
1616,0.0262451,0.025,
1618,0.010376,0.025,
1620,-0.057373,0.0249573,
1622,0.0317383,0.0249634,
1624,0.0158691,0.0248474,
1626,-0.0610352,0.0248596,
1628,0.0195313,0.0250061,
1630,-0.0311279,0.0251038,
1632,0.0262451,0.025238,
1634,0.00793457,0.0250793,
1636,-0.0567627,0.0249573,
1638,0.0183105,0.0251221,
1640,0.0164795,0.025,
1642,-0.0335693,0.0249756,
1644,0.0366211,0.0250366,
1646,-0.0238037,0.0249817,
1648,0.00488281,0.0249268,
1650,0.0231934,0.024939,
1652,-0.0244141,0.0248535,
1654,-0.0158691,0.0247559,
1656,0.0286865,0.0248108,
1658,0.00488281,0.0247864,
1660,-0.0280762,0.0248779,
1662,-0.0183105,0.0247742,
1664,-0.0109863,0.0248169,
1666,0.0201416,0.0247864,
1668,0.0134277,0.0247559,
1670,-0.0585938,0.0247803,
1672,0.032959,0.0247925,
1674,0.0152588,0.0247375,
1676,-0.0463867,0.0246521,
1678,-0.00427246,0.0246887,
1680,-0.00244141,0.024469,
1682,0.020752,0.0243713,
1684,0.00183105,0.0242798,
1686,-0.0671387,0.0242676,
1688,0.010376,0.0242859,
1690,0.0213623,0.0244141,
1692,-0.0183105,0.0243225,
1694,0,0.0241577,
1696,-0.0201416,0.0240479,
1698,0.010376,0.0241089,
1700,0.00915527,0.0240601,
1702,-0.0299072,0.0239929,
1704,-0.0250244,0.0240601,
1706,0.0231934,0.024115,
1708,0.0170898,0.0241089,
1710,-0.0378418,0.0242554,
1712,-0.0219727,0.024231,
1714,-0.0115967,0.0242981,
1716,0.0128174,0.0242615,
1718,0.0128174,0.024292,
1720,-0.0671387,0.0243408,
1722,0.0323486,0.0243164,
1724,0.0170898,0.0242859,
1726,-0.0482178,0.0242676,
1728,0.0189209,0.0243469,
1730,-0.0213623,0.0242981,
1732,0.00915527,0.0242249,
1734,0.0115967,0.0241516,
1736,-0.057373,0.0239868,
1738,0.00732422,0.0239563,
1740,0.0268555,0.0239807,
1742,-0.03479,0.0239868,
1744,0.0292969,0.0238708,
1746,-0.0274658,0.0238586,
1748,-0.00427246,0.0238281,
1750,0.032959,0.0240417,
1752,-0.022583,0.0239136,
1754,-0.0189209,0.0238708,
1756,0.0292969,0.0239502,
1758,0.00244141,0.0239502,
1760,-0.0189209,0.0239197,
1762,-0.00793457,0.0237549,
1764,-0.0128174,0.0236389,
1766,0.0274658,0.0236267,
1768,0.0164795,0.0236206,
1770,-0.0646973,0.0236877,
1772,0.0256348,0.0237061,
1774,0.0256348,0.0237427,
1776,-0.0488281,0.0236816,
1778,0.0134277,0.0236877,
1780,-0.0250244,0.0236206,
1782,0.0109863,0.023584,
1784,0.0195313,0.023584,
1786,-0.065918,0.0236145,
1788,0.00305176,0.0236389,
1790,0.0280762,0.0236633,
1792,-0.022583,0.0237183,
1794,0.0115967,0.0237793,
1796,-0.0286865,0.0238586,
1798,0.00915527,0.0238586,
1800,0.0109863,0.0237427,
1802,-0.0238037,0.0236267,
1804,-0.0335693,0.0237183,
1806,0.0219727,0.0236572,
1808,0.0189209,0.0236023,
1810,-0.0396729,0.0237244,
1812,-0.0164795,0.0237061,
1814,0.0012207,0.0237,
1816,0.0219727,0.0236572,
1818,0.0170898,0.0237244,
1820,-0.0695801,0.0238464,
1822,0.0317383,0.0238464,
1824,0.0256348,0.0239441,
1826,-0.0537109,0.0238708,
1828,0.0140381,0.0238159,
1830,-0.0183105,0.0236877,
1832,0.0146484,0.0235718,
1834,0.0189209,0.0236816,
1836,-0.0537109,0.0236511,
1838,0.0115967,0.023584,
1840,0.0195313,0.0236145,
1842,-0.0292969,0.0235718,
1844,0.0164795,0.0233704,
1846,-0.0201416,0.0233337,
1848,0.00366211,0.0233215,
1850,0.010376,0.0231934,
1852,-0.0250244,0.0231995,
1854,-0.032959,0.0233704,
1856,0.0317383,0.0234009,
1858,0.0128174,0.0234802,
1860,-0.0384521,0.023584,
1862,-0.0109863,0.0235107,
1864,-0.012207,0.0235229,
1866,0.0244141,0.0235657,
1868,0.00976563,0.0235291,
1870,-0.0628662,0.0235718,
1872,0.0439453,0.0236816,
1874,0.0158691,0.0236877,
1876,-0.0531006,0.0237549,
1878,0.0335693,0.0240479,
1880,-0.0280762,0.0243042,
1882,0.0134277,0.024231,
1884,0.0250244,0.0244629,
1886,-0.0598145,0.0243896,
1888,0.00610352,0.0243469,
1890,0.0360107,0.0244934,
1892,-0.0292969,0.0246033,
1894,0.0140381,0.0247437,
1896,-0.0219727,0.024762,
1898,0.00305176,0.0246887,
1900,0.0195313,0.0247925,
1902,-0.0250244,0.0247437,
1904,-0.0408936,0.0249023,
1906,0.0256348,0.0249268,
1908,0.0274658,0.0250305,
1910,-0.043335,0.0250854,
1912,-0.0164795,0.0250305,
1914,-0.0128174,0.0250427,
1916,0.0274658,0.0251892,
1918,0.0140381,0.0252014,
1920,-0.0738525,0.0252686,
1922,0.0372314,0.0253174,
1924,0.0311279,0.0254578,
1926,-0.0488281,0.0254639,
1928,0.0170898,0.0254456,
1930,-0.020752,0.0254395,
1932,0.0231934,0.0255798,
1934,0.0219727,0.0256836,
1936,-0.0634766,0.0257446,
1938,0.0012207,0.0256836,
1940,0.0177002,0.025592,
1942,-0.022583,0.02547,
1944,0.0140381,0.0253174,
1946,-0.020752,0.0252502,
1948,-0.00183105,0.0252258,
1950,0.0177002,0.0250732,
1952,-0.00854492,0.0249329,
1954,-0.0317383,0.025061,
1956,0.0244141,0.0250122,
1958,0.0140381,0.0251282,
1960,-0.0372314,0.0253113,
1962,-0.00915527,0.0253235,
1964,-0.0128174,0.0253235,
1966,0.0335693,0.0253845,
1968,0.0195313,0.025415,
1970,-0.0634766,0.0254028,
1972,0.0238037,0.0253845,
1974,0.0250244,0.0253784,
1976,-0.045166,0.0253418,
1978,0.00549316,0.0252625,
1980,-0.0268555,0.0252808,
1982,0.0152588,0.0253235,
1984,0.0158691,0.0252869,
1986,-0.0543213,0.0251709,
1988,0.00183105,0.0251587,
1990,0.0152588,0.0250305,
1992,-0.0152588,0.0249573,
1994,0.0250244,0.0250916,
1996,-0.0360107,0.0251648,
1998,0.00610352,0.0251343,
2000,0.0140381,0.0251648,
2002,-0.0244141,0.0251709,
2004,-0.0274658,0.0251099,
2006,0.0244141,0.0251343,
2008,0.0109863,0.0250549,
2010,-0.0396729,0.0250549,
2012,-0.0140381,0.0250305,
2014,-0.00915527,0.0251099,
2016,0.0152588,0.0250427,
2018,0.0158691,0.0250305,
2020,-0.0567627,0.0249023,
2022,0.0250244,0.0248352,
2024,0.0115967,0.0246948,
2026,-0.0360107,0.0245178,
2028,0.0170898,0.0245483,
2030,-0.0244141,0.0246094,
2032,0.0164795,0.0246277,
2034,0.0262451,0.0247009,
2036,-0.0708008,0.0248718,
2038,0.00549316,0.0248108,
2040,0.0170898,0.0247864,
2042,-0.0158691,0.0246521,
2044,0.0109863,0.0245972,
2046,-0.0262451,0.0246582,
2048,0.0012207,0.0246338,
2050,0.0201416,0.0247314,
2052,-0.0146484,0.0246277,
2054,-0.03479,0.024646,
2056,0.0231934,0.0245605,
2058,0.00793457,0.0245117,
2060,-0.0384521,0.0245117,
2062,-0.00427246,0.0244446,
2064,-0.0274658,0.0245972,
2066,0.0146484,0.0244995,
2068,0.0158691,0.0245605,
2070,-0.0543213,0.0244751,
2072,0.00488281,0.0240845,
2074,0.0341797,0.0242676,
2076,-0.0469971,0.0242065,
2078,0.0238037,0.0241089,
2080,-0.0384521,0.0242126,
2082,0.0213623,0.024292,
2084,0.0164795,0.0242065,
2086,-0.0543213,0.0241516,
2088,-0.00549316,0.0241455,
2090,0.0183105,0.0239685,
2092,-0.00671387,0.0237427,
2094,0.00549316,0.0236572,
2096,-0.0189209,0.0236267,
2098,0.00183105,0.0236145,
2100,0.0256348,0.0236755,
2102,-0.00610352,0.0234863,
2104,-0.0286865,0.0233643,
2106,0.0299072,0.023407,
2108,0.00915527,0.0232239,
2110,-0.0311279,0.0231018,
2112,-0.0128174,0.0230652,
2114,-0.010376,0.0230408,
2116,0.0183105,0.0229492,
2118,0.00732422,0.0228821,
2120,-0.0653076,0.0227966,
2122,0.0164795,0.0225891,
2124,0.0262451,0.0225403,
2126,-0.0457764,0.0225098,
2128,0.0152588,0.0224915,
2130,-0.0250244,0.0225342,
2132,0.0170898,0.0224731,
2134,0.0164795,0.0224182,
2136,-0.0610352,0.0223938,
2138,-0.010376,0.0224854,
2140,0.0244141,0.0225525,
2142,-0.0250244,0.0225769,
2144,0.00854492,0.022522,
2146,-0.0280762,0.0225952,
2148,-0.00915527,0.0226685,
2150,0.0115967,0.0226074,
2152,-0.00427246,0.0225647,
2154,-0.0280762,0.0225281,
2156,0.0183105,0.022467,
2158,0.00366211,0.0223633,
2160,-0.032959,0.0223206,
2162,-0.00244141,0.0222534,
2164,-0.020752,0.0223328,
2166,0.0299072,0.0222961,
2168,0.0134277,0.0222351,
2170,-0.0720215,0.0223206,
2172,0.0299072,0.0223816,
2174,0.0238037,0.0223694,
2176,-0.0390625,0.0223083,
2178,0.0128174,0.0223816,
2180,-0.0317383,0.0224304,
2182,0.00793457,0.0223572,
2184,0.0140381,0.0223389,
2186,-0.0524902,0.0223206,
2188,0.00244141,0.0223267,
2190,0.0219727,0.0223938,
2192,-0.0195313,0.0224365,
2194,0.00976563,0.0222839,
2196,-0.0213623,0.0221375,
2198,0.00671387,0.0221436,
2200,0.0134277,0.0221375,
2202,-0.0128174,0.0220215,
2204,-0.0372314,0.0221191,
2206,0.0292969,0.022168,
2208,0.0219727,0.0222778,
2210,-0.045166,0.0223328,
2212,-0.012207,0.0223145,
2214,-0.00671387,0.02229,
2216,0.0177002,0.0223145,
2218,0.0140381,0.0222961,
2220,-0.057373,0.0223022,
2222,0.0299072,0.0223511,
2224,0.0189209,0.0224243,
2226,-0.0402832,0.022467,
2228,0.0427246,0.0227234,
2230,-0.0274658,0.0227539,
2232,0.00854492,0.0226746,
2234,0.0213623,0.0226257,
2236,-0.0408936,0.0223267,
2238,-0.00183105,0.02229,
2240,0.00671387,0.0221863,
2242,-0.020752,0.0222351,
2244,0.0128174,0.0222534,
2246,-0.0384521,0.0223755,
2248,-0.00732422,0.0224365,
2250,0.0115967,0.0223511,
2252,-0.00427246,0.0222473,
2254,-0.045166,0.0223511,
2256,0.0177002,0.0222961,
2258,0.010376,0.0223206,
2260,-0.0256348,0.0221924,
2262,-0.010376,0.0222534,
2264,-0.0305176,0.0222839,
2266,0.0195313,0.0223328,
2268,0.0109863,0.0222839,
2270,-0.065918,0.0223999,
2272,0.0195313,0.0225464,
2274,0.00976563,0.0223022,
2276,-0.0463867,0.0222961,
2278,0.0115967,0.0221741,
2280,-0.0292969,0.0220825,
2282,0.0170898,0.0220398,
2284,0.00793457,0.0219543,
2286,-0.0567627,0.0219788,
2288,-0.00793457,0.0220032,
2290,0.0140381,0.0219604,
2292,-0.012207,0.0220154,
2294,-0.00305176,0.021991,
2296,-0.0286865,0.0220886,
2298,-0.00183105,0.0220886,
2300,0.0158691,0.021991,
2302,-0.00793457,0.0220093,
2304,-0.0421143,0.0221436,
2306,0.0170898,0.0220154,
2308,0.0250244,0.0221741,
2310,-0.0512695,0.0223755,
2312,-0.00793457,0.0223267,
2314,-0.00549316,0.0222778,
2316,-0.00366211,0.0221313,
2318,0.010376,0.0221619,
2320,-0.0610352,0.0221191,
2322,0.00915527,0.0220459,
2324,0.0189209,0.0219727,
2326,-0.0402832,0.0219177,
2328,0.0146484,0.0219116,
2330,-0.0335693,0.0219971,
2332,0.0128174,0.0219543,
2334,0.012207,0.0219116,
2336,-0.0506592,0.0218079,
2338,-0.0140381,0.0218445,
2340,0.0164795,0.0217651,
2342,-0.00610352,0.0215759,
2344,-0.00366211,0.0215271,
2346,-0.0268555,0.0215149,
2348,0.0012207,0.0214355,
2350,0.0183105,0.0215027,
2352,-0.0201416,0.0216614,
2354,-0.0476074,0.0218567,
2356,0.0280762,0.0219543,
2358,0.0268555,0.0221863,
2360,-0.0457764,0.0223145,
2362,-0.0195313,0.0224854,
2364,-0.0201416,0.0224792,
2366,0.0164795,0.022345,
2368,0.0158691,0.0223694,
2370,-0.0775146,0.0224243,
2372,0.0238037,0.0223633,
2374,0.0177002,0.0223022,
2376,-0.0506592,0.0224182,
2378,0.0256348,0.0225464,
2380,-0.0280762,0.0225098,
2382,0.00610352,0.0224915,
2384,0.0128174,0.0224792,
2386,-0.0494385,0.0224487,
2388,-0.00976563,0.022522,
2390,0.0256348,0.0225586,
2392,-0.00549316,0.0224182,
2394,-0.00427246,0.0223633,
2396,-0.0256348,0.022406,
2398,-0.0012207,0.0223511,
2400,0.0213623,0.0224304,
2402,0.000610352,0.0223083,
2404,-0.0494385,0.0224304,
2406,0.0286865,0.0224243,
2408,0.020752,0.0224121,
2410,-0.0561523,0.022522,
2412,0.0109863,0.0225098,
2414,-0.0286865,0.0227295,
2416,0.0189209,0.0227417,
2418,0.0128174,0.0227295,
2420,-0.0665283,0.022821,
2422,0.020752,0.0227295,
2424,0.0183105,0.0227234,
2426,-0.0366211,0.0226868,
2428,-0.0012207,0.0222717,
2430,-0.0195313,0.0221924,
2432,0.0164795,0.0222717,
2434,0.0109863,0.022168,
2436,-0.045166,0.0222107,
2438,-0.0158691,0.0223511,
2440,0.00610352,0.022345,
2442,0.00366211,0.0221741,
2444,-0.0109863,0.0221558,
2446,-0.0250244,0.0220215,
2448,0.00610352,0.0220093,
2450,0.0280762,0.0221741,
2452,-0.00366211,0.022168,
2454,-0.045166,0.022168,
2456,0.0299072,0.02229,
2458,0.0274658,0.0224609,
2460,-0.0427246,0.0226318,
2462,-0.00366211,0.0225647,
2464,-0.0274658,0.0225342,
2466,0.0177002,0.0225159,
2468,0.0170898,0.0225769,
2470,-0.0622559,0.0225403,
2472,0.0140381,0.0224854,
2474,0.0213623,0.0226013,
2476,-0.0427246,0.0225647,
2478,0.0244141,0.0226929,
2480,-0.0231934,0.0226318,
2482,0.0134277,0.0225952,
2484,0.0152588,0.0226685,
2486,-0.0421143,0.022522,
2488,-0.012207,0.0225647,
2490,0.0213623,0.0226379,
2492,-0.00671387,0.022583,
2494,-0.00793457,0.0226318,
2496,-0.0195313,0.0225403,
2498,-0.0012207,0.0225342,
2500,0.00610352,0.0224365,
2502,0.00244141,0.0223816,
2504,-0.0372314,0.0223328,
2506,0.0256348,0.0224182,
2508,0.0219727,0.0223877,
2510,-0.0506592,0.0223816,
2512,0.00671387,0.0223694,
2514,-0.0195313,0.0225098,
2516,0.0262451,0.0227356,
2518,0.0146484,0.0227783,
2520,-0.0585938,0.0227539,
2522,0.0195313,0.0228577,
2524,0.0231934,0.0229004,
2526,-0.0384521,0.0228821,
2528,0.0250244,0.0229858,
2530,-0.0292969,0.0229431,
2532,0.00976563,0.0229126,
2534,0.0158691,0.0229492,
2536,-0.0463867,0.0229065,
2538,-0.0115967,0.0228821,
2540,0.0213623,0.0229309,
2542,-0.000610352,0.022876,
2544,-0.012207,0.0229614,
2546,-0.0238037,0.0229309,
2548,0,0.0229187,
2550,0.020752,0.0229431,
2552,0.00244141,0.0227661,
2554,-0.045166,0.0227417,
2556,0.0244141,0.0227051,
2558,0.0286865,0.0227234,
2560,-0.0506592,0.0227722,
2562,0.00549316,0.0226318,
2564,-0.0183105,0.0226135,
2566,0.012207,0.0225708,
2568,0.022583,0.0226379,
2570,-0.0518799,0.0223816,
2572,-0.0012207,0.0221558,
2574,0.0177002,0.0221558,
2576,-0.0183105,0.0218323,
2578,0.00976563,0.0216736,
2580,-0.0341797,0.0217346,
2582,0.00610352,0.0217346,
2584,0.0213623,0.0218201,
2586,-0.043335,0.021759,
2588,-0.0219727,0.0218811,
2590,0.0201416,0.0218262,
2592,0.00549316,0.0218262,
2594,-0.00793457,0.0218628,
2596,-0.0213623,0.0218201,
2598,-0.00793457,0.0218872,
2600,0.0164795,0.0218384,
2602,0.00183105,0.0218506,
2604,-0.0469971,0.0218262,
2606,0.0238037,0.0217773,
2608,0.0177002,0.0217468,
2610,-0.055542,0.0217407,
2612,-0.000610352,0.021637,
2614,-0.0177002,0.0215271,
2616,0.0177002,0.0215149,
2618,0.00610352,0.0214478,
2620,-0.0567627,0.0213501,
2622,0.00793457,0.0212219,
2624,0.0183105,0.0212219,
2626,-0.0439453,0.0212952,
2628,0.0183105,0.0214661,
2630,-0.0262451,0.0215332,
2632,0,0.0213684,
2634,0.0146484,0.021405,
2636,-0.0408936,0.0213623,
2638,-0.0134277,0.0213379,
2640,0.0262451,0.0215393,
2642,0.00488281,0.0215515,
2644,-0.0177002,0.0216187,
2646,-0.022583,0.0215942,
2648,0.00244141,0.0215576,
2650,0.00793457,0.0213562,
2652,0.0012207,0.0213318,
2654,-0.0524902,0.021405,
2656,0.0195313,0.0213013,
2658,0.0201416,0.021228,
2660,-0.0579834,0.0213806,
2662,-0.000610352,0.0213501,
2664,-0.0250244,0.0213257,
2666,0.020752,0.0213562,
2668,0.012207,0.0213074,
2670,-0.0622559,0.0213074,
2672,0.0109863,0.0212769,
2674,0.012207,0.0211853,
2676,-0.0292969,0.021051,
2678,0.0256348,0.0210632,
2680,-0.0292969,0.0211243,
2682,0.00488281,0.0210388,
2684,0.010376,0.02099,
2686,-0.0317383,0.0208862,
2688,-0.0158691,0.0209229,
2690,0.0134277,0.0208435,
2692,-0.00244141,0.0208008,
2694,-0.0152588,0.020874,
2696,-0.020752,0.0208862,
2698,-0.00793457,0.0209534,
2700,0.00732422,0.0209656,
2702,0.00427246,0.0209839,
2704,-0.043335,0.0210449,
2706,0.0231934,0.0210205,
2708,0.0268555,0.0210693,
2710,-0.0469971,0.0210327,
2712,0.00793457,0.0210449,
2714,-0.0195313,0.0210449,
2716,0.0164795,0.0209473,
2718,0.020752,0.0210083,
2720,-0.0842285,0.0212646,
2722,0.0170898,0.0212402,
2724,0.0311279,0.0213196,
2726,-0.0323486,0.0212585,
2728,-0.0012207,0.0210205,
2730,-0.0250244,0.0209778,
2732,0.0109863,0.02099,
2734,0.0219727,0.021051,
2736,-0.0408936,0.0209961,
2738,-0.032959,0.0212097,
2740,0.0305176,0.0213013,
2742,0.0109863,0.021405,
2744,-0.0201416,0.0214844,
2746,-0.0256348,0.0215027,
2748,-0.0109863,0.0216125,
2750,0.0335693,0.0217407,
2752,0.00488281,0.0217651,
2754,-0.055542,0.0218689,
2756,0.0299072,0.0219238,
2758,0.0372314,0.0220093,
2760,-0.0427246,0.0219299,
2762,-0.00244141,0.0218994,
2764,-0.0128174,0.0218445,
2766,0.0305176,0.0220276,
2768,0.0152588,0.0219543,
2770,-0.0665283,0.0221008,
2772,0.00976563,0.0221863,
2774,0.0262451,0.0222717,
2776,-0.0354004,0.0224426,
2778,0.0250244,0.0225952,
2780,-0.0384521,0.0226379,
2782,0.0177002,0.0227539,
2784,0.0274658,0.0228149,
2786,-0.0384521,0.0227661,
2788,-0.0335693,0.0228821,
2790,0.0268555,0.0229492,
2792,0.00366211,0.0229309,
2794,-0.0164795,0.0230164,
2796,-0.0292969,0.0230957,
2798,-0.0109863,0.0231262,
2800,0.020752,0.0231689,
2802,0.0164795,0.0233154,
2804,-0.055542,0.0234009,
2806,0.0280762,0.0234436,
2808,0.0189209,0.0234558,
2810,-0.0579834,0.0234802,
2812,0.00244141,0.0234985,
2814,-0.0213623,0.0235352,
2816,0.0183105,0.0235413,
2818,0.0158691,0.0236389,
2820,-0.0579834,0.0236511,
2822,0.0128174,0.0237,
2824,0.0201416,0.0237183,
2826,-0.0280762,0.0235596,
2828,0.0219727,0.0235962,
2830,-0.020752,0.0235413,
2832,0.0109863,0.0236511,
2834,0.0244141,0.0237488,
2836,-0.0354004,0.0236938,
2838,-0.0164795,0.0237244,
2840,0.0238037,0.0237,
2842,0.0146484,0.0237976,
2844,-0.0177002,0.0237976,
2846,-0.00976563,0.0236694,
2848,0.000610352,0.0236511,
2850,0.0109863,0.0236816,
2852,0.0195313,0.0238647,
2854,-0.0445557,0.0237854,
2856,0.0256348,0.0238464,
2858,0.0183105,0.0238281,
2860,-0.0305176,0.0235535,
2862,0.0140381,0.0236877,
2864,-0.0299072,0.0237366,
2866,0.0189209,0.0237183,
2868,0.0164795,0.023761,
2870,-0.0518799,0.0236572,
2872,0.0128174,0.0236755,
2874,0.0256348,0.0238098,
2876,-0.0366211,0.0238831,
2878,0.0335693,0.0239624,
2880,-0.0268555,0.023938,
2882,0.00549316,0.0239441,
2884,0.0140381,0.0239807,
2886,-0.0262451,0.0239258,
2888,-0.0335693,0.0241028,
2890,0.0250244,0.0242188,
2892,-0.0177002,0.0243713,
2894,-0.00183105,0.0242371,
2896,-0.00305176,0.0240601,
2898,-0.0366211,0.0243469,
2900,0.0231934,0.0245056,
2902,0.0219727,0.0246826,
2904,-0.0518799,0.0247681,
2906,0.0238037,0.0247742,
2908,-0.00183105,0.0245239,
2910,-0.0372314,0.0244263,
2912,0.0354004,0.0247009,
2914,-0.0256348,0.024762,
2916,-0.00427246,0.0246399,
2918,0.0274658,0.024707,
2920,-0.0616455,0.0244812,
2922,0.0231934,0.0245422,
2924,0.0170898,0.0244019,
2926,-0.0378418,0.0244568,
2928,0.0183105,0.0246277,
2930,-0.0299072,0.0246765,
2932,0.00671387,0.0246338,
2934,0.0183105,0.0245972,
2936,-0.0238037,0.0244263,
2938,-0.0219727,0.0243164,
2940,0.0244141,0.0242554,
2942,-0.00305176,0.024176,
2944,-0.022583,0.0242004,
2946,0.0280762,0.0242249,
2948,-0.0201416,0.0243164,
2950,0.00976563,0.0240784,
2952,0.0299072,0.0243286,
2954,-0.057373,0.0243469,
2956,0.0360107,0.024408,
2958,0.00488281,0.0240845,
2960,-0.0292969,0.0239502,
2962,0.0256348,0.0241821,
2964,-0.0219727,0.0242737,
2966,-0.00305176,0.023999,
2968,0.0170898,0.0240173,
2970,-0.0494385,0.0238464,
2972,0.0152588,0.0239014,
2974,0.00915527,0.0237305,
2976,-0.0219727,0.0235962,
2978,-0.000610352,0.0233521,
2980,0.00549316,0.0230225,
2982,-0.0183105,0.0230286,
2984,0.0158691,0.0229126,
2986,-0.00610352,0.0225891,
2988,-0.0305176,0.0225586,
2990,0.0250244,0.0225403,
2992,-0.010376,0.0226074,
2994,-0.0256348,0.022699,
2996,0.0305176,0.0227112,
2998,-0.0360107,0.0229614,
3000,0.00427246,0.0227966,
3002,0.0292969,0.0229248,
3004,-0.0628662,0.022998,
3006,0.0445557,0.0231628,
3008,0.00427246,0.0230164,
3010,-0.0317383,0.0227539,
3012,0.0390625,0.0231201,
3014,-0.0109863,0.0230164,
3016,-0.00976563,0.0229309,
3018,0.0115967,0.0228882,
3020,-0.0494385,0.0228027,
3022,0.010376,0.0227783,
3024,0.0164795,0.0227417,
3026,-0.032959,0.0227905,
3028,-0.0109863,0.0226807,
3030,0.0128174,0.0226013,
3032,-0.0244141,0.0227356,
3034,0.0183105,0.0226746,
3036,-0.0189209,0.0225098,
3038,-0.0146484,0.0224915,
3040,0.0360107,0.0226135,
3042,-0.010376,0.0225708,
3044,-0.0360107,0.0227539,
3046,0.032959,0.0229858,
3048,-0.0299072,0.0232788,
3050,0.00549316,0.0232239,
3052,0.0250244,0.0232788,
3054,-0.0610352,0.0234436,
3056,0.0280762,0.023468,
3058,0.00488281,0.0233337,
3060,-0.045166,0.0234802,
3062,0.0341797,0.0236816,
3064,-0.0231934,0.0236145,
3066,-0.00915527,0.0235168,
3068,0.0238037,0.0235901,
3070,-0.0463867,0.0235352,
3072,0.012207,0.0235291,
3074,0.0189209,0.0234619,
3076,-0.0317383,0.0234131,
3078,-0.00366211,0.023114,
3080,0.0164795,0.0230103,
3082,-0.0189209,0.0231445,
3084,0.0213623,0.0232178,
3086,-0.00244141,0.0229797,
3088,-0.0231934,0.022876,
3090,0.0341797,0.0229675,
3092,-0.0189209,0.0229797,
3094,-0.0354004,0.0233154,
3096,0.0274658,0.0235596,
3098,-0.032959,0.0235229,
3100,0.0109863,0.0234009,
3102,0.0231934,0.0234131,
3104,-0.0622559,0.0235168,
3106,0.0372314,0.0236511,
3108,0.00244141,0.0236572,
3110,-0.0384521,0.0236694,
3112,0.0341797,0.0236572,
3114,-0.0201416,0.0236023,
3116,-0.0134277,0.0236938,
3118,0.0164795,0.023584,
3120,-0.0469971,0.0234375,
3122,0.0012207,0.0232178,
3124,0.0128174,0.023175,
3126,-0.0274658,0.0230713,
3128,-0.00183105,0.0229065,
3130,0.0128174,0.0227356,
3132,-0.0256348,0.0229248,
3134,0.012207,0.0228638,
3136,-0.00183105,0.022644,
3138,-0.0268555,0.0226929,
3140,0.020752,0.0226562,
3142,-0.0109863,0.0227356,
3144,-0.0372314,0.0228821,
3146,0.0372314,0.0229736,
3148,-0.0335693,0.0231079,
3150,-0.000610352,0.0230164,
3152,0.020752,0.0229248,
3154,-0.0537109,0.0228882,
3156,0.0305176,0.0228333,
3158,0,0.0227844,
3160,-0.0372314,0.0228638,
3162,0.0317383,0.0229248,
3164,-0.0286865,0.0229919,
3166,-0.00244141,0.0229858,
3168,0.0170898,0.0229858,
3170,-0.0463867,0.0229553,
3172,-0.000610352,0.0228088,
3174,0.0250244,0.0229675,
3176,-0.0219727,0.0229675,
3178,-0.00305176,0.0229919,
3180,-0.0274658,0.0232117,
3182,0.00427246,0.0230713,
3184,0.012207,0.0230347,
3186,-0.0354004,0.0233276,
3188,-0.0268555,0.023291,
3190,0.0158691,0.0231995,
3192,0.0219727,0.0233154,
3194,-0.0384521,0.0234436,
3196,-0.0183105,0.0233215,
3198,-0.00305176,0.0229919,
3200,0.00915527,0.0230408,
3202,0.0195313,0.0229431,
3204,-0.0524902,0.0228394,
3206,0.0134277,0.0225281,
3208,0.00427246,0.0225281,
3210,-0.0341797,0.0225525,
3212,0.0518799,0.0226807,
3214,-0.045166,0.0230225,
3216,0.000610352,0.0229309,
3218,0.010376,0.0229187,
3220,-0.0506592,0.0229309,
3222,-0.00244141,0.0228516,
3224,0.020752,0.0228943,
3226,-0.0311279,0.022876,
3228,-0.00610352,0.0228271,
3230,0.0195313,0.0228943,
3232,-0.0286865,0.022937,
3234,0.0128174,0.0228821,
3236,0.010376,0.0227966,
3238,-0.0305176,0.0229553,
3240,0.0183105,0.0227783,
3242,-0.00549316,0.0227295,
3244,-0.0317383,0.0226868,
3246,0.0286865,0.022644,
3248,-0.0390625,0.0227356,
3250,-0.010376,0.0227844,
3252,0.0286865,0.022821,
3254,-0.0598145,0.0228088,
3256,0.0231934,0.02276,
3258,0.0134277,0.0228455,
3260,-0.0396729,0.0227905,
3262,0.0286865,0.0227356,
3264,-0.010376,0.0226074,
3266,-0.012207,0.0226379,
3268,0.0231934,0.0226318,
3270,-0.0390625,0.0225586,
3272,-0.00427246,0.0224792,
3274,0.00915527,0.0223816,
3276,-0.0158691,0.0222229,
3278,-0.0115967,0.0223022,
3280,0.0134277,0.0222717,
3282,-0.0360107,0.0224426,
3284,0.00854492,0.0223145,
3286,-0.00244141,0.0223145,
3288,-0.0335693,0.0224182,
3290,0.0280762,0.0223572,
3292,-0.00854492,0.0222534,
3294,-0.0256348,0.0221558,
3296,-0.000610352,0.0218872,
3298,-0.0378418,0.021936,
3300,0.0177002,0.0220032,
3302,0.0256348,0.0220276,
3304,-0.0512695,0.0219177,
3306,0.0195313,0.0217407,
3308,-0.00427246,0.021759,
3310,-0.0378418,0.0217529,
3312,0.0476074,0.0218872,
3314,-0.0469971,0.0221558,
3316,0.010376,0.0221252,
3318,0.0189209,0.0221497,
3320,-0.0463867,0.0221436,
3322,-0.00244141,0.0221558,
3324,0.0152588,0.0221802,
3326,-0.0195313,0.0221008,
3328,0.020752,0.02229,
3330,-0.0280762,0.0224426,
3332,-0.00488281,0.0222351,
3334,0.0213623,0.0223267,
3336,-0.00488281,0.0223572,
3338,-0.032959,0.0224182,
3340,0.020752,0.0224182,
3342,-0.00793457,0.0223877,
3344,-0.0286865,0.0223022,
3346,0.0311279,0.0222412,
3348,-0.0274658,0.0221802,
3350,0.00244141,0.0221985,
3352,0.0305176,0.0222961,
3354,-0.0543213,0.0223022,
3356,0.020752,0.0222046,
3358,0.00854492,0.02229,
3360,-0.0366211,0.0222839,
3362,0.0268555,0.0222351,
3364,-0.0140381,0.0220886,
3366,-0.0115967,0.0221802,
3368,0.0213623,0.0222229,
3370,-0.0323486,0.0220825,
3372,0.00305176,0.0221069,
3374,0.0195313,0.022052,
3376,-0.0177002,0.0220093,
3378,-0.00793457,0.0220581,
3380,0.0219727,0.0220032,
3382,-0.0213623,0.0221741,
3384,0.0146484,0.0221985,
3386,0.00915527,0.021936,
3388,-0.0256348,0.0219238,
3390,0.0268555,0.0220337,
3392,-0.00183105,0.0218323,
3394,-0.0354004,0.0218018,
3396,0.0427246,0.0220459,
3398,-0.03479,0.0223633,
3400,0,0.0222717,
3402,0.0305176,0.0223816,
3404,-0.045166,0.0223083,
3406,0.0250244,0.0224243,
3408,0.0164795,0.0225464,
3410,-0.0299072,0.0225037,
3412,0.0256348,0.0222412,
3414,-0.00854492,0.021875,
3416,-0.010376,0.0219727,
3418,0.0152588,0.0220215,
3420,-0.0335693,0.0218506,
3422,0.00366211,0.0218628,
3424,0.0274658,0.0219299,
3426,-0.0201416,0.0218201,
3428,-0.0189209,0.0219482,
3430,0.0292969,0.0220459,
3432,-0.0262451,0.0220215,
3434,0.0170898,0.0220642,
3436,0.0012207,0.0219727,
3438,-0.0408936,0.0220764,
3440,0.0323486,0.0222168,
3442,-0.00671387,0.022229,
3444,-0.0506592,0.0224182,
3446,0.0396729,0.0225281,
3448,-0.0421143,0.0225586,
3450,0.00244141,0.0224792,
3452,0.0115967,0.0223083,
3454,-0.0531006,0.0222412,
3456,0.0250244,0.0222595,
3458,0.000610352,0.0221313,
3460,-0.0335693,0.0220703,
3462,0.0268555,0.022052,
3464,-0.0134277,0.0220825,
3466,-0.0115967,0.0220764,
3468,0.022583,0.0220703,
3470,-0.043335,0.022113,
3472,0.00610352,0.0221313,
3474,0.0152588,0.0221924,
3476,-0.0219727,0.0222534,
3478,-0.012207,0.0222595,
3480,0.0170898,0.0222961,
3482,-0.0280762,0.0222168,
3484,0.0128174,0.0222595,
3486,0.00488281,0.0222839,
3488,-0.0244141,0.0221924,
3490,0.0262451,0.0221741,
3492,-0.00549316,0.0221436,
3494,-0.0366211,0.0222534,
3496,0.0427246,0.0226746,
3498,-0.0311279,0.0226074,
3500,0.00305176,0.0224609,
3502,0.0396729,0.0226013,
3504,-0.043335,0.022522,
3506,0.0183105,0.0225098,
3508,0.00549316,0.022522,
3510,-0.022583,0.0223694,
3512,0.0274658,0.022168,
3514,-0.00854492,0.0217834,
3516,-0.0128174,0.0218079,
3518,0.0201416,0.0218201,
3520,-0.0390625,0.0217468,
3522,0.00305176,0.0217529,
3524,0.0213623,0.021814,
3526,-0.0183105,0.0218018,
3528,-0.010376,0.021698,
3530,0.0152588,0.0215698,
3532,-0.0268555,0.0217896,
3534,0.0195313,0.0217712,
3536,0.0152588,0.021875,
3538,-0.032959,0.021875,
3540,0.0286865,0.0219543,
3542,-0.00915527,0.0219666,
3544,-0.0280762,0.0219604,
3546,0.0305176,0.0219543,
3548,-0.0372314,0.022052,
3550,0.00366211,0.0220642,
3552,0.0256348,0.0220154,
3554,-0.0616455,0.0220886,
3556,0.0262451,0.0221436,
3558,0.022583,0.0222839,
3560,-0.0488281,0.022406,
3562,0.0341797,0.0224792,
3564,-0.0268555,0.0226074,
3566,-0.00244141,0.0225159,
3568,0.0213623,0.0225159,
3570,-0.0427246,0.0226196,
3572,-0.00610352,0.0226501,
3574,0.022583,0.0226807,
3576,-0.0213623,0.0227173,
3578,-0.0134277,0.0227722,
3580,0.0140381,0.0226929,
3582,-0.0305176,0.0227844,
3584,0.0146484,0.0227844,
3586,0.0115967,0.0228088,
3588,-0.0360107,0.0229126,
3590,0.0360107,0.0230042,
3592,-0.0012207,0.022998,
3594,-0.0463867,0.0231079,
3596,0.0396729,0.0230774,
3598,-0.0274658,0.0230042,
3600,-0.00427246,0.0230469,
3602,0.0231934,0.0229736,
3604,-0.0561523,0.0230835,
3606,0.00976563,0.0229309,
3608,-0.00183105,0.0227844,
3610,-0.0286865,0.0227722,
3612,0.0152588,0.0226685,
3614,-0.00671387,0.0226501,
3616,-0.012207,0.0226685,
3618,0.0201416,0.0227173,
3620,-0.0390625,0.0227722,
3622,-0.0012207,0.0227478,
3624,0.0238037,0.0227112,
3626,-0.0256348,0.0227661,
3628,-0.010376,0.0226807,
3630,0.0201416,0.0225891,
3632,-0.0354004,0.0226807,
3634,0.00854492,0.0225952,
3636,0.0177002,0.02276,
3638,-0.0323486,0.0226746,
3640,0.0305176,0.0226562,
3642,-0.0213623,0.0228027,
3644,-0.0317383,0.0226135,
3646,0.0317383,0.0225342,
3648,-0.0311279,0.0224243,
3650,-0.00549316,0.0224548,
3652,0.020752,0.0225464,
3654,-0.0616455,0.0226318,
3656,0.0231934,0.0226135,
3658,0.00854492,0.0226929,
3660,-0.0292969,0.0226501,
3662,0.0238037,0.0226196,
3664,-0.0012207,0.0224976,
3666,-0.0238037,0.0226196,
3668,0.0292969,0.0226868,
3670,-0.022583,0.0224792,
3672,0.00610352,0.0224792,
3674,0.0128174,0.0224548,
3676,-0.022583,0.0224609,
3678,-0.00732422,0.0224121,
3680,0.022583,0.022467,
3682,-0.0274658,0.0224609,
3684,0.0115967,0.0224487,
3686,0.0164795,0.0225647,
3688,-0.0384521,0.0227051,
3690,0.0292969,0.0227356,
3692,-0.00366211,0.0227173,
3694,-0.043335,0.0227844,
3696,0.0354004,0.0227112,
3698,-0.0268555,0.0226685,
3700,-0.00854492,0.0227234,
3702,0.0195313,0.022522,
3704,-0.057373,0.0226624,
3706,0.022583,0.0227051,
3708,0.00915527,0.0227417,
3710,-0.032959,0.0228455,
3712,0.0158691,0.0227295,
3714,-0.00305176,0.0226746,
3716,-0.0152588,0.022699,
3718,0.0201416,0.022699,
3720,-0.03479,0.0226562,
3722,-0.00183105,0.022644,
3724,0.0170898,0.0226013,
3726,-0.0170898,0.0225891,
3728,-0.0140381,0.0226257,
3730,0.0189209,0.0226624,
3732,-0.0286865,0.0226807,
3734,0.012207,0.0226074,
3736,0.00488281,0.0225037,
3738,-0.03479,0.022522,
3740,0.0262451,0.0224976,
3742,-0.000610352,0.0224121,
3744,-0.0402832,0.0225342,
3746,0.0378418,0.0226074,
3748,-0.0360107,0.0225952,
3750,-0.00366211,0.0225952,
3752,0.0305176,0.022644,
3754,-0.0549316,0.0225769,
3756,0.0231934,0.0225464,
3758,-0.00183105,0.0223389,
3760,-0.0317383,0.022168,
3762,0.0274658,0.0221008,
3764,-0.0109863,0.0219421,
3766,-0.0274658,0.0221924,
3768,0.0134277,0.022113,
3770,-0.0262451,0.0219482,
3772,-0.0109863,0.0219971,
3774,0.00854492,0.0218567,
3776,-0.020752,0.0218506,
3778,-0.0158691,0.021875,
3780,0.0128174,0.0218628,
3782,-0.0256348,0.021814,
3784,0.00671387,0.0217346,
3786,0.0201416,0.0218201,
3788,-0.0378418,0.0218384,
3790,0.0292969,0.0217712,
3792,-0.00305176,0.0217896,
3794,-0.0335693,0.0216614,
3796,0.0402832,0.0216675,
3798,-0.0378418,0.0217712,
3800,0.00671387,0.0217957,
3802,0.0231934,0.0217957,
3804,-0.0579834,0.021814,
3806,0.0244141,0.0219604,
3808,0.00244141,0.0219666,
3810,-0.03479,0.0220276,
3812,0.0140381,0.0220154,
3814,-0.00854492,0.0220337,
3816,-0.0231934,0.0221436,
3818,0.0164795,0.0221069,
3820,-0.0268555,0.0219849,
3822,-0.0152588,0.0221252,
3824,0.0170898,0.0220581,
3826,-0.020752,0.0220093,
3828,-0.0219727,0.0221252,
3830,0.0152588,0.0220764,
3832,-0.0372314,0.0220947,
3834,0.00244141,0.0220337,
3836,0.0262451,0.0221191,
3838,-0.0396729,0.0221924,
3840,0.0158691,0.0220459,
3842,0.00366211,0.0218689,
3844,-0.0408936,0.0219604,
3846,0.0341797,0.0219849,
3848,-0.0219727,0.0218933,
3850,0.00183105,0.0218567,
3852,0.0323486,0.0219727,
3854,-0.0726318,0.0220825,
3856,0.012207,0.0219727,
3858,0.0158691,0.0220459,
3860,-0.0299072,0.022052,
3862,0.00366211,0.0218506,
3864,-0.0134277,0.0219727,
3866,-0.0213623,0.0219482,
3868,0.00305176,0.0216858,
3870,-0.0286865,0.0217468,
3872,-0.012207,0.0218079,
3874,0.0250244,0.0219299,
3876,0.0164795,0.0218689,
3878,-0.0592041,0.0223877,
3880,-0.0189209,0.0223511,
3882,0.00305176,0.0221069,
3884,0.0128174,0.0221191,
3886,0.00305176,0.0219849,
3888,-0.0598145,0.0221985,
3890,0.0238037,0.0221436,
3892,-0.00549316,0.0221619,
3894,-0.0311279,0.0220398,
3896,0.0360107,0.0220459,
3898,-0.0286865,0.0220642,
3900,0,0.0219788,
3902,0.00793457,0.0218628,
3904,-0.0616455,0.0219055,
3906,0.0152588,0.0218323,
3908,0.00183105,0.021759,
3910,-0.0378418,0.0218079,
3912,0.00854492,0.0217346,
3914,0.0012207,0.0217163,
3916,-0.00671387,0.0216309,
3918,0.00671387,0.0214966,
3920,-0.0292969,0.0214417,
3922,0.00305176,0.0214539,
3924,0.045166,0.0217346,
3926,0.00671387,0.0216309,
3928,0.012207,0.0216125,
3930,0.0213623,0.021637,
3932,-0.0317383,0.0216675,
3934,0.0335693,0.0218811,
3936,0.0469971,0.0223022,
3938,-0.0256348,0.0222107,
3940,0.0268555,0.0222168,
3942,0.0189209,0.0223999,
3944,-0.0012207,0.0220093,
3946,0.10498,0.0226807,
3948,0.0830078,0.0231506,
3950,0.158691,0.0247009,
3952,0.193481,0.0263306,
3954,0.0390625,0.0261719,
3956,0.135498,0.0272949,
3958,0.0714111,0.0279907,
3960,0.0311279,0.0279846,
3962,0.0622559,0.0283325,
3964,-0.0476074,0.0286987,
3966,-0.113525,0.0295593,
3968,-0.0561523,0.0299866,
3970,-0.134277,0.0310669,
3972,-0.0128174,0.0310852,
3974,-0.00366211,0.0310364,
3976,0.0262451,0.0310913,
3978,0.0219727,0.0311523,
3980,0.0354004,0.0313782,
3982,0.0280762,0.0314026,
3984,0.0579834,0.0319153,
3986,0.0799561,0.0325134,
3988,-0.0592041,0.0327271,
3990,-0.0579834,0.0330139,
3992,-0.0531006,0.0335144,
3994,-0.055542,0.0337341,
3996,-0.0244141,0.0335754,
3998,-0.134888,0.0345459,
4000,-0.137939,0.0358582,
4002,0.000610352,0.0356323,
4004,-0.0805664,0.0358582,
4006,-0.0262451,0.0358765,
4008,-0.0213623,0.0360657,
4010,0.00305176,0.0357483,
4012,-0.0793457,0.0364014,
4014,-0.012207,0.036438,
4016,0.0543213,0.0367493,
4018,-0.0671387,0.0372559,
4020,-0.116577,0.0381531,
4022,0.012207,0.0381226,
4024,0.130615,0.0392578,
4026,0.0897217,0.0399475,
4028,-0.123291,0.0409607,
4030,0.0195313,0.0410034,
4032,0.00305176,0.0406616,
4034,-0.0280762,0.040918,
4036,-0.0109863,0.0407654,
4038,-0.0616455,0.0409851,
4040,0.0708008,0.0415344,
4042,-0.120239,0.0427002,
4044,-0.154419,0.0438354,
4046,-0.0469971,0.0439636,
4048,0.055542,0.0442993,
4050,-0.0750732,0.0450317,
4052,0.0323486,0.0450317,
4054,-0.151978,0.0458252,
4056,-0.103149,0.0467346,
4058,-0.0720215,0.0472961,
4060,-0.117798,0.048175,
4062,-0.078125,0.0489197,
4064,0.00183105,0.0488037,
4066,0.0689697,0.0492798,
4068,-0.109253,0.0503418,
4070,-0.0445557,0.0505005,
4072,0.000610352,0.0503845,
4074,0.100708,0.0511414,
4076,-0.0799561,0.0517761,
4078,-0.0708008,0.0518921,
4080,0.0115967,0.0518188,
4082,-0.111694,0.0529053,
4084,0.012207,0.0528992,
4086,0.022583,0.0530945,
4088,-0.109253,0.0535889,
4090,0.0311279,0.0536621,
4092,-0.0109863,0.053717,
4094,-0.0531006,0.0539368,
4096,0.0244141,0.0538208,
4098,-0.0396729,0.0539307,
4100,-0.0170898,0.0541016,
4102,-0.0335693,0.0543579,
4104,-0.00549316,0.0537964,
4106,0.0616455,0.0542603,
4108,-0.0769043,0.055011,
4110,-0.0317383,0.05495,
4112,0.0396729,0.0552612,
4114,0.0164795,0.0554138,
4116,0.0543213,0.0558899,
4118,0.00732422,0.055896,
4120,-0.0201416,0.0558044,
4122,0.0610352,0.0563843,
4124,0.0823975,0.0567566,
4126,-0.0170898,0.0568604,
4128,-0.0634766,0.057373,
4130,0.0585938,0.0577454,
4132,-0.10437,0.0584717,
4134,-0.0128174,0.0582642,
4136,-0.065918,0.0584534,
4138,-0.0286865,0.0584839,
4140,0.0921631,0.059137,
4142,0.0152588,0.0591003,
4144,0,0.0590881,
4146,0.154419,0.0595825,
4148,0.000610352,0.0587585,
4150,-0.0262451,0.0574341,
4152,0.0610352,0.0561096,
4154,-0.0463867,0.0561829,
4156,-0.045166,0.0552795,
4158,-0.0488281,0.0550537,
4160,-0.0927734,0.0556702,
4162,-0.0604248,0.0556519,
4164,-0.0201416,0.0553772,
4166,-0.067749,0.0549194,
4168,0.0341797,0.0546997,
4170,0.0311279,0.0536682,
4172,0.00305176,0.0535706,
4174,0.0769043,0.054303,
4176,-0.000610352,0.0540466,
4178,0.0415039,0.0542419,
4180,0.0183105,0.054071,
4182,-0.0219727,0.05401,
4184,0.0701904,0.0541321,
4186,-0.0421143,0.0537537,
4188,-0.0561523,0.0537231,
4190,0.0976563,0.0541199,
4192,0.0799561,0.0543884,
4194,-0.0549316,0.0543823,
4196,0.0933838,0.055072,
4198,-0.103149,0.0547546,
4200,0.00305176,0.0534058,
4202,0.0732422,0.0541321,
4204,-0.100098,0.0543274,
4206,0.0183105,0.054248,
4208,-0.0500488,0.0545349,
4210,-0.107422,0.0555786,
4212,0.0146484,0.0549316,
4214,0.0256348,0.0550659,
4216,0.0311279,0.054834,
4218,-0.0201416,0.054364,
4220,-0.0244141,0.0534424,
4222,0.0128174,0.0534485,
4224,-0.0390625,0.052533,
4226,-0.00366211,0.0516724,
4228,-0.0598145,0.0510376,
4230,0.0360107,0.0512024,
4232,-0.0689697,0.0518616,
4234,0.0158691,0.0517395,
4236,0.0140381,0.05177,
4238,-0.0506592,0.0516602,
4240,0.0683594,0.0516357,
4242,0.0567627,0.051001,
4244,0.100708,0.0504639,
4246,0.00610352,0.0500549,
4248,-0.0671387,0.0501709,
4250,0.03479,0.0497681,
4252,0.0708008,0.0501526,
4254,-0.00305176,0.0486633,
4256,-0.0140381,0.0477722,
4258,-0.0244141,0.0472961,
4260,-0.057373,0.0466919,
4262,-0.022583,0.0461365,
4264,0.0769043,0.0468872,
4266,0.0177002,0.0463745,
4268,0.0671387,0.0459534,
4270,-0.105591,0.0465637,
4272,-0.067749,0.0472351,
4274,0.0305176,0.0465332,
4276,0.000610352,0.0457397,
4278,-0.0671387,0.0457031,
4280,-0.098877,0.0465759,
4282,-0.0500488,0.0459595,
4284,0.0366211,0.0462036,
4286,-0.0195313,0.0461731,
4288,-0.119629,0.0462769,
4290,0.00549316,0.0460205,
4292,0.0213623,0.0461243,
4294,-0.00671387,0.0456604,
4296,0.00488281,0.0454651,
4298,-0.0158691,0.0452271,
4300,-0.00671387,0.0451233,
4302,0.00549316,0.0448425,
4304,-0.0280762,0.0450684,
4306,0.0164795,0.0446167,
4308,0.0286865,0.0441345,
4310,-0.0390625,0.0442078,
4312,-0.020752,0.0440186,
4314,0.0592041,0.0444458,
4316,-0.0012207,0.0439148,
4318,0.0524902,0.0443665,
4320,-0.055542,0.0447205,
4322,0.0195313,0.0443054,
4324,0.0915527,0.044397,
4326,0.0708008,0.0449341,
4328,0.0146484,0.0444458,
4330,0.0317383,0.0441772,
4332,-0.0689697,0.0438232,
4334,0.0549316,0.0442444,
4336,0.0360107,0.0439453,
4338,-0.0970459,0.0446289,
4340,0.022583,0.0439331,
4342,-0.0579834,0.0443604,
4344,-0.0817871,0.0451782,
4346,-0.0408936,0.044043,
4348,-0.0244141,0.044281,
4350,-0.012207,0.0441406,
4352,0.0463867,0.0439941,
4354,-0.0366211,0.0438965,
4356,0.067749,0.0441223,
4358,-0.0286865,0.0439209,
4360,0.00915527,0.0430847,
4362,0.00244141,0.0425049,
4364,-0.0268555,0.042572,
4366,-0.0299072,0.0421936,
4368,-0.00366211,0.0418884,
4370,-0.0689697,0.0422668,
4372,-0.0750732,0.0429871,
4374,0.0415039,0.0426331,
4376,-0.0115967,0.0427429,
4378,-0.032959,0.0426575,
4380,0.0494385,0.0429688,
4382,-0.0488281,0.0432373,
4384,0.020752,0.0427429,
4386,0.0476074,0.0427979,
4388,-0.0195313,0.0424316,
4390,0.128174,0.0427368,
4392,0.0323486,0.0422607,
4394,-0.0378418,0.0420898,
4396,0.0762939,0.0419189,
4398,-0.0012207,0.0408997,
4400,-0.00366211,0.0409058,
4402,0.0238037,0.0404114,
4404,-0.057373,0.0399841,
4406,0.0695801,0.0404968,
4408,-0.0164795,0.0401611,
4410,-0.0866699,0.0399536,
4412,0.0952148,0.0407593,
4414,0.03479,0.0408508,
4416,0.0231934,0.0407715,
4418,-0.0219727,0.0407898,
4420,-0.0115967,0.0406616,
4422,-0.116577,0.0416992,
4424,0.00305176,0.0413391,
4426,-0.0744629,0.0420471,
4428,-0.0775146,0.0422241,
4430,-0.0378418,0.0422424,
4432,-0.0640869,0.0421936,
4434,-0.0390625,0.0424255,
4436,0.0170898,0.0424561,
4438,0.022583,0.0421753,
4440,0.0805664,0.0422974,
4442,-0.0299072,0.0420288,
4444,-0.0445557,0.0414673,
4446,0.0769043,0.0421753,
4448,0.0128174,0.0416321,
4450,0.0244141,0.0415283,
4452,0.0256348,0.0410767,
4454,-0.182495,0.0428711,
4456,0.0219727,0.0429504,
4458,0.012207,0.0428284,
4460,-0.0305176,0.0425598,
4462,-0.0738525,0.0430725,
4464,0.0378418,0.0426819,
4466,-0.0543213,0.0430481,
4468,0.0506592,0.0428833,
4470,-0.010376,0.0419312,
4472,0.0408936,0.0416626,
4474,0.00854492,0.0414429,
4476,-0.0115967,0.0415527,
4478,0.0427246,0.0413086,
4480,0.0610352,0.0409302,
4482,-0.00610352,0.0404907,
4484,0.0146484,0.040271,
4486,-0.0128174,0.0402039,
4488,-0.067749,0.0396851,
4490,0.0213623,0.0398437,
4492,0.00244141,0.0396545,
4494,-0.00793457,0.0396667,
4496,-0.0378418,0.0399963,
4498,-0.0250244,0.0400879,
4500,0.00244141,0.0400452,
4502,0.0201416,0.0401917,
4504,-0.00610352,0.0399719,
4506,-0.0732422,0.0405396,
4508,0.0244141,0.0404968,
4510,0.0170898,0.0402771,
4512,0.022583,0.0402954,
4514,-0.00915527,0.0397949,
4516,-0.0927734,0.0407104,
4518,0.043335,0.0406189,
4520,-0.0177002,0.0402405,
4522,-0.0158691,0.0402039,
4524,0.012207,0.0394104,
4526,-0.0463867,0.0391663,
4528,-0.078125,0.039801,
4530,0.0231934,0.0397156,
4532,0.0170898,0.0391968,
4534,-0.020752,0.038855,
4536,0.0231934,0.0387268,
4538,-0.0823975,0.0385803,
4540,0.0408936,0.0387634,
4542,0.0488281,0.0386719,
4544,-0.00976563,0.0379517,
4546,0.0170898,0.0377136,
4548,-0.0469971,0.0379395,
4550,-0.0256348,0.0380737,
4552,0.135498,0.0389648,
4554,0.0720215,0.0393188,
4556,0.00854492,0.0387268,
4558,-0.0549316,0.0389893,
4560,0.0653076,0.0395508,
4562,0.0335693,0.0398621,
4564,-0.0634766,0.0402283,
4566,-0.0524902,0.0404541,
4568,-0.0189209,0.0406067,
4570,-0.090332,0.0408203,
4572,-0.12085,0.0412781,
4574,-0.0439453,0.0413025,
4576,0.0280762,0.0414673,
4578,0.0708008,0.0418457,
4580,-0.00793457,0.0414307,
4582,-0.0738525,0.0416809,
4584,0.0476074,0.0419495,
4586,0.00244141,0.0414978,
4588,-0.020752,0.04151,
4590,-0.022583,0.0404541,
4592,-0.0201416,0.040332,
4594,0.0396729,0.0403503,
4596,-0.172729,0.0413147,
4598,-0.0305176,0.0416077,
4600,0.0756836,0.0423279,
4602,0.0708008,0.0427979,
4604,-0.0585938,0.0428101,
4606,-0.00915527,0.0422058,
4608,-0.0567627,0.0426086,
4610,-0.0769043,0.042511,
4612,0.078125,0.0423401,
4614,0.00671387,0.0420593,
4616,-0.0543213,0.0423706,
4618,0.0146484,0.0422974,
4620,-0.0140381,0.0423218,
4622,-0.0756836,0.0419128,
4624,0.00488281,0.0419312,
4626,-0.00915527,0.0412781,
4628,-0.010376,0.0406067,
4630,-0.0390625,0.0406189,
4632,-0.109863,0.0410767,
4634,-0.0598145,0.0412842,
4636,0.102539,0.0421387,
4638,-0.0183105,0.0420959,
4640,-0.0012207,0.0413025,
4642,0.03479,0.0413513,
4644,-0.0189209,0.041095,
4646,0.0720215,0.0410461,
4648,0.0219727,0.0411377,
4650,0.0115967,0.0410095,
4652,-0.0177002,0.0409302,
4654,-0.0341797,0.039447,
4656,-0.057373,0.039801,
4658,-0.0592041,0.040271,
4660,0.0689697,0.0406555,
4662,-0.0195313,0.0401123,
4664,-0.166626,0.0414001,
4666,-0.012207,0.040979,
4668,0.00427246,0.0405151,
4670,-0.00854492,0.0404968,
4672,-0.0549316,0.0406372,
4674,0.03479,0.0408997,
4676,0.0396729,0.0411804,
4678,-0.142822,0.0421814,
4680,-0.0750732,0.0423218,
4682,0.0445557,0.0427063,
4684,0.012207,0.0426819,
4686,-0.0219727,0.0427734,
4688,-0.113525,0.0432312,
4690,0.0317383,0.043335,
4692,-0.0238037,0.0435486,
4694,-0.090332,0.0443726,
4696,0.0860596,0.0448547,
4698,-0.022583,0.0448303,
4700,0.0445557,0.0452515,
4702,0.0549316,0.0455994,
4704,-0.137329,0.0469116,
4706,0.0823975,0.0470032,
4708,0.0396729,0.0471558,
4710,-0.0610352,0.0475952,
4712,0.022583,0.0475952,
4714,0.0250244,0.0477539,
4716,-0.0305176,0.0471313,
4718,-0.0585938,0.0472839,
4720,0.0390625,0.0474976,
4722,-0.0579834,0.0479187,
4724,0.020752,0.0480042,
4726,0.0372314,0.0479126,
4728,-0.010376,0.0472351,
4730,0.0805664,0.0478088,
4732,-0.13916,0.0490295,
4734,0.00183105,0.0488403,
4736,0.0970459,0.0495789,
4738,-0.043335,0.0491882,
4740,-0.0109863,0.0488892,
4742,-0.012207,0.0485229,
4744,-0.0177002,0.0486023,
4746,0.0427246,0.0488586,
4748,-0.0213623,0.0486023,
4750,0.0427246,0.0487732,
4752,-0.0305176,0.0477234,
4754,-0.0512695,0.0475159,
4756,0.088501,0.0483154,
4758,0.0286865,0.048053,
4760,-0.0854492,0.0482544,
4762,-0.0274658,0.0481934,
4764,0.010376,0.0476624,
4766,-0.109253,0.04823,
4768,-0.0201416,0.0482422,
4770,0.0488281,0.0478271,
4772,-0.055542,0.0471741,
4774,0.0201416,0.046936,
4776,-0.0250244,0.0469055,
4778,-0.0256348,0.0464539,
4780,0.00427246,0.0464172,
4782,0.00244141,0.0457031,
4784,0.0177002,0.0454041,
4786,0.00305176,0.0454102,
4788,-0.0366211,0.0455688,
4790,0.0463867,0.0458069,
4792,0.0219727,0.0458252,
4794,-0.141602,0.0468445,
4796,0.0769043,0.0458862,
4798,0.0341797,0.0459229,
4800,-0.0366211,0.0455322,
4802,0.0372314,0.0451965,
4804,-0.0915527,0.0455261,
4806,-0.0268555,0.0457031,
4808,0.0219727,0.0453552,
4810,-0.0244141,0.0448303,
4812,-0.022583,0.0442749,
4814,0.00305176,0.0442383,
4816,0.0152588,0.0438477,
4818,0.0213623,0.0439148,
4820,0.0683594,0.044458,
4822,-0.0415039,0.0441162,
4824,0.0671387,0.0447388,
4826,0.020752,0.0448547,
4828,-0.0543213,0.0452942,
4830,-0.00671387,0.0449707,
4832,-0.032959,0.0442017,
4834,0.00732422,0.0436768,
4836,0.0286865,0.0429382,
4838,-0.15564,0.0443115,
4840,-0.0164795,0.0444641,
4842,0.0494385,0.0446106,
4844,0.0311279,0.0447327,
4846,-0.00305176,0.044043,
4848,-0.0195313,0.0440186,
4850,-0.00366211,0.0439392,
4852,0.0878906,0.0446411,
4854,-0.0415039,0.0447144,
4856,-0.0244141,0.0443848,
4858,-0.010376,0.0438965,
4860,-0.0268555,0.0434753,
4862,-0.0231934,0.043512,
4864,-0.0799561,0.0426453,
4866,-0.00305176,0.0425537,
4868,-0.0964355,0.0434753,
4870,0.000610352,0.043396,
4872,-0.0408936,0.0432556,
4874,-0.043335,0.0433411,
4876,-0.0128174,0.0430725,
4878,-0.00488281,0.0416931,
4880,0.0274658,0.041217,
4882,-0.0402832,0.0411743,
4884,-0.0158691,0.0412109,
4886,0.0598145,0.0415894,
4888,-0.0280762,0.0407349,
4890,0.032959,0.0407471,
4892,0.0195313,0.0407043,
4894,0,0.039801,
4896,-0.0256348,0.0391968,
4898,-0.0177002,0.0391479,
4900,0.0238037,0.0389404,
4902,0.00549316,0.038446,
4904,-0.0415039,0.0374878,
4906,0.0390625,0.0370544,
4908,-0.0012207,0.0366699,
4910,-0.043335,0.0364929,
4912,0.0512695,0.0367798,
4914,0.0372314,0.0369019,
4916,-0.0421143,0.0370178,
4918,0.0457764,0.0368896,
4920,0.0390625,0.0368896,
4922,-0.0469971,0.0367798,
4924,0.00610352,0.0366333,
4926,0.00488281,0.0363098,
4928,-0.0445557,0.0366516,
4930,0.0946045,0.036792,
4932,0.0231934,0.0356323,
4934,-0.0524902,0.0361389,
4936,0.0476074,0.0356445,
4938,-0.00671387,0.0352783,
4940,-0.0360107,0.0355286,
4942,0.0366211,0.0357727,
4944,-0.0653076,0.0362488,
4946,0.0714111,0.0365356,
4948,-0.0860596,0.0371826,
4950,0.0305176,0.0370605,
4952,0.0427246,0.0371826,
4954,-0.0744629,0.0374146,
4956,-0.0341797,0.0368713,
4958,-0.0115967,0.0367004,
4960,-0.00244141,0.0358704,
4962,-0.0134277,0.03573,
4964,-0.0305176,0.0359314,
4966,-0.148315,0.036322,
4968,-0.0274658,0.0363953,
4970,0.0939941,0.0368469,
4972,-0.0378418,0.0366699,
4974,-0.090332,0.0373718,
4976,-0.0439453,0.037561,
4978,0.0311279,0.037616,
4980,0.0299072,0.0378723,
4982,-0.0811768,0.0386597,
4984,-0.0012207,0.0384949,
4986,0.010376,0.0385681,
4988,-0.0427246,0.0386292,
4990,-0.0213623,0.0383789,
4992,0.0280762,0.0384399,
4994,-0.0457764,0.0374817,
4996,-0.00671387,0.0367798,
4998,-0.0140381,0.0365784,
5000,-0.0152588,0.0363647,
5002,0.0549316,0.0365417,
5004,0.0170898,0.0357971,
5006,0.0134277,0.0356628,
5008,0.0610352,0.0360535,
5010,-0.0164795,0.0359741,
5012,0.012207,0.0358704,
5014,0.000610352,0.0358459,
5016,-0.0335693,0.0360291,
5018,-0.0177002,0.0359924,
5020,0.00915527,0.0354004,
5022,-0.126953,0.0362549,
5024,0.067749,0.036261,
5026,0.00427246,0.0360962,
5028,-0.0286865,0.0358398,
5030,-0.0012207,0.0357849,
5032,-0.0323486,0.0357788,
5034,0.00549316,0.0357605,
5036,0.0439453,0.0359131,
5038,-0.0360107,0.0347168,
5040,0.0323486,0.0348755,
5042,-0.00671387,0.0344482,
5044,-0.00244141,0.0341614,
5046,0.0128174,0.034259,
5048,0.0341797,0.0344055,
5050,-0.0476074,0.034845,
5052,0.0439453,0.0344055,
5054,0.0256348,0.0342468,
5056,-0.0622559,0.0346252,
5058,0.0341797,0.0348633,
5060,-0.00549316,0.0346497,
5062,-0.0262451,0.0346802,
5064,0.0280762,0.0341614,
5066,-0.0372314,0.0345032,
5068,-0.00366211,0.0335754,
5070,-0.045166,0.034021,
5072,-0.0213623,0.0338257,
5074,0.0354004,0.0337463,
5076,-0.0299072,0.0339172,
5078,-0.0476074,0.0343445,
5080,0.0402832,0.0344727,
5082,0.0158691,0.0342285,
5084,0.0531006,0.0346008,
5086,-0.0268555,0.0342712,
5088,-0.0909424,0.0348999,
5090,0.0683594,0.0352539,
5092,0.0457764,0.0355164,
5094,-0.0787354,0.0363037,
5096,0.0201416,0.0362488,
5098,-0.00366211,0.0361084,
5100,-0.0231934,0.0361023,
5102,0.0183105,0.0362305,
5104,-0.0201416,0.0360168,
5106,-0.0531006,0.0361572,
5108,0.00549316,0.0362,
5110,-0.00976563,0.0358643,
5112,-0.0372314,0.0357239,
5114,-0.00549316,0.0354065,
5116,-0.0238037,0.0352234,
5118,-0.00244141,0.03479,
5120,0.0299072,0.0346985,
5122,0.020752,0.034436,
5124,0.0726318,0.0351013,
5126,0.0311279,0.0353638,
5128,-0.043335,0.0353516,
5130,0.0531006,0.0349365,
5132,0,0.0347046,
5134,-0.0396729,0.0345764,
5136,0.0115967,0.0342163,
5138,-0.0476074,0.0346252,
5140,0.0238037,0.0345032,
5142,0.000610352,0.0341431,
5144,-0.0524902,0.0340149,
5146,0.00976563,0.0333984,
5148,-0.0128174,0.032666,
5150,-0.0476074,0.0328369,
5152,0.0421143,0.0328308,
5154,-0.0280762,0.0323669,
5156,-0.0152588,0.0321777,
5158,-0.0750732,0.0328125,
5160,0.0256348,0.0330444,
5162,-0.00732422,0.0329834,
5164,0.0189209,0.0328674,
5166,-0.022583,0.0316101,
5168,0.0115967,0.0314514,
5170,0.00366211,0.0305481,
5172,-0.0305176,0.0304749,
5174,0.0897217,0.0304688,
5176,0.0238037,0.0302673,
5178,-0.0750732,0.0307068,
5180,0.0213623,0.0306213,
5182,-0.00244141,0.029834,
5184,-0.010376,0.0299255,
5186,0.0201416,0.0300232,
5188,-0.0585938,0.0301819,
5190,-0.0140381,0.0301086,
5192,0.0134277,0.0299622,
5194,-0.00610352,0.0295654,
5196,0.0146484,0.0296448,
5198,0.0115967,0.0296204,
5200,0.00793457,0.0295471,
5202,-0.00427246,0.0290405,
5204,-0.00793457,0.028949,
5206,0.00549316,0.0288696,
5208,0.0335693,0.028595,
5210,-0.0482178,0.0289124,
5212,-0.055542,0.0293457,
5214,0.0561523,0.0299011,
5216,-0.043335,0.0299988,
5218,-0.00793457,0.0299011,
5220,0.0109863,0.0299194,
5222,-0.00366211,0.0286865,
5224,0.0469971,0.028479,
5226,-0.0238037,0.0286743,
5228,-0.0762939,0.0291504,
5230,0.0579834,0.029718,
5232,0.00793457,0.0294739,
5234,-0.0146484,0.0295654,
5236,-0.0317383,0.0294434,
5238,-0.0878906,0.0299622,
5240,-0.00610352,0.0296997,
5242,0.00671387,0.0296997,
5244,-0.012207,0.0297974,
5246,0.0402832,0.030072,
5248,-0.0268555,0.0299988,
5250,-0.0360107,0.0298828,
5252,0.0427246,0.0298706,
5254,-0.0317383,0.0299316,
5256,0.0134277,0.0294434,
5258,-0.00976563,0.0291992,
5260,-0.0115967,0.0292603,
5262,-0.0512695,0.0295105,
5264,-0.0354004,0.0295837,
5266,-0.0305176,0.0295166,
5268,0.0115967,0.0295959,
5270,0.00793457,0.0292236,
5272,-0.0793457,0.0298035,
5274,0.0543213,0.0299927,
5276,0.0128174,0.0298218,
5278,-0.0537109,0.0298828,
5280,-0.0292969,0.0297729,
5282,0.0219727,0.029834,
5284,-0.00305176,0.0293335,
5286,0.0164795,0.0292297,
5288,-0.0494385,0.0288147,
5290,0.0830078,0.0289612,
5292,0.0250244,0.0287537,
5294,-0.012207,0.0280884,
5296,-0.0708008,0.028595,
5298,0.00244141,0.0285828,
5300,0.0280762,0.0286316,
5302,0.00732422,0.0285217,
5304,-0.0469971,0.0287903,
5306,-0.0421143,0.0286804,
5308,-0.0177002,0.0288025,
5310,0.00915527,0.0287964,
5312,-0.00488281,0.0284729,
5314,0.0756836,0.0291748,
5316,0.0012207,0.028949,
5318,0.00732422,0.0289978,
5320,0.0323486,0.0290222,
5322,-0.0457764,0.0292725,
5324,-0.00366211,0.0285828,
5326,-0.0152588,0.0284241,
5328,-0.0396729,0.0283875,
5330,0.00183105,0.0278748,
5332,-0.0622559,0.0284973,
5334,-0.000610352,0.0281067,
5336,0.0164795,0.0281555,
5338,-0.0219727,0.0278992,
5340,-0.0134277,0.0277954,
5342,0.090332,0.0286926,
5344,-0.0482178,0.0286499,
5346,-0.00793457,0.0286316,
5348,-0.0531006,0.0290344,
5350,-0.0421143,0.0289795,
5352,0.0323486,0.0288818,
5354,-0.0683594,0.0292847,
5356,0.010376,0.0292358,
5358,0.00305176,0.0285156,
5360,-0.0921631,0.0291809,
5362,-0.0610352,0.029718,
5364,0.0738525,0.0302673,
5366,-0.00305176,0.030072,
5368,-0.0158691,0.0301147,
5370,-0.0482178,0.0305603,
5372,-0.0714111,0.0309692,
5374,-0.0128174,0.0302002,
5376,0.057373,0.0305359,
5378,0.0115967,0.0299011,
5380,0.0793457,0.030481,
5382,-0.0189209,0.0306458,
5384,-0.0280762,0.0308228,
5386,0.0415039,0.0310364,
5388,-0.0408936,0.0308594,
5390,0.0152588,0.0308716,
5392,-0.0140381,0.0308777,
5394,-0.0543213,0.0313599,
5396,0.020752,0.0314209,
5398,-0.0311279,0.0316162,
5400,-0.0646973,0.0321838,
5402,0.057373,0.0327148,
5404,0.0341797,0.0329773,
5406,-0.00610352,0.0329834,
5408,0.0457764,0.0331055,
5410,-0.0183105,0.0328064,
5412,-0.0256348,0.0325073,
5414,-0.0152588,0.0320984,
5416,0.0354004,0.032019,
5418,-0.0378418,0.0323181,
5420,0.0518799,0.0327271,
5422,-0.0372314,0.0330627,
5424,-0.0415039,0.0330078,
5426,0.0219727,0.0329895,
5428,-0.0219727,0.0324463,
5430,0.0805664,0.0326721,
5432,-0.0726318,0.0333191,
5434,-0.00854492,0.0332581,
5436,0.0506592,0.0334473,
5438,-0.105591,0.0336243,
5440,-0.00976563,0.0336609,
5442,0.0421143,0.0340149,
5444,-0.0396729,0.0342896,
5446,-0.0183105,0.0340698,
5448,0.0396729,0.034198,
5450,0.0457764,0.0342957,
5452,0.000610352,0.0338745,
5454,-0.0897217,0.0344543,
5456,-0.00976563,0.0344177,
5458,0.0537109,0.0348572,
5460,-0.0402832,0.035144,
5462,-0.0848389,0.0354797,
5464,0.0262451,0.0353882,
5466,-0.0378418,0.0354614,
5468,0.0195313,0.0355408,
5470,-0.0292969,0.0357544,
5472,-0.0683594,0.0356445,
5474,0.0549316,0.0356506,
5476,0.0427246,0.0359497,
5478,-0.0476074,0.0358887,
5480,-0.0585938,0.0361816,
5482,-0.00549316,0.0360168,
5484,0.00976563,0.036084,
5486,0.0408936,0.0363281,
5488,-0.0244141,0.0360779,
5490,-0.0720215,0.035968,
5492,0.0317383,0.0360352,
5494,0.00366211,0.0359497,
5496,0.0238037,0.0354797,
5498,-0.0628662,0.036084,
5500,-0.0939941,0.0367432,
5502,0.00854492,0.0367554,
5504,-0.0195313,0.0364807,
5506,0.0805664,0.0368652,
5508,-0.0134277,0.0368225,
5510,-0.0384521,0.0371155,
5512,0.0610352,0.037677,
5514,0.0408936,0.0373291,
5516,0.00732422,0.0373901,
5518,0.0390625,0.0377075,
5520,0.0482178,0.0378662,
5522,-0.0158691,0.0375671,
5524,0.0152588,0.0376831,
5526,0.00671387,0.0375977,
5528,-0.0567627,0.0377686,
5530,0.00610352,0.0378113,
5532,-0.0549316,0.037738,
5534,0.03479,0.0380798,
5536,0.0146484,0.0380615,
5538,-0.0286865,0.0381287,
5540,-0.0140381,0.0381348,
5542,0.03479,0.0375793,
5544,-0.0250244,0.0373474,
5546,0.0665283,0.0379333,
5548,0.0109863,0.0375122,
5550,-0.0146484,0.0372375,
5552,0.0354004,0.0372681,
5554,-0.0531006,0.0371155,
5556,-0.012207,0.0371338,
5558,0.0146484,0.0372498,
5560,-0.0408936,0.0367371,
5562,-0.0305176,0.0364319,
5564,0.03479,0.0360413,
5566,-0.0201416,0.0362122,
5568,-0.0372314,0.0364258,
5570,0.00976563,0.0360413,
5572,-0.0140381,0.0354675,
5574,0.0543213,0.0358826,
5576,0.0244141,0.035553,
5578,-0.0823975,0.036261,
5580,0.0524902,0.0359924,
5582,-0.0402832,0.0362061,
5584,-0.00732422,0.0359985,
5586,0.088501,0.0364685,
5588,-0.0482178,0.0365417,
5590,0.0421143,0.0368103,
5592,-0.0598145,0.0372681,
5594,0.0164795,0.0368896,
5596,0.0500488,0.0371826,
5598,0.0299072,0.0371704,
5600,-0.0494385,0.0370178,
5602,-0.0170898,0.036615,
5604,-0.0274658,0.0365479,
5606,0,0.0364868,
5608,0.0378418,0.0364075,
5610,-0.0158691,0.0363831,
5612,0.010376,0.0362305,
5614,-0.0354004,0.0364319,
5616,-0.0012207,0.0360901,
5618,0.0164795,0.0358765,
5620,0.00671387,0.0354248,
5622,-0.126953,0.036322,
5624,0.0622559,0.0365295,
5626,0.0231934,0.0365417,
5628,-0.135498,0.037677,
5630,-0.0146484,0.0370178,
5632,-0.020752,0.036499,
5634,-0.010376,0.0365173,
5636,0.0317383,0.0363281,
5638,-0.0817871,0.0360901,
5640,0.0189209,0.0361816,
5642,0.0317383,0.0360779,
5644,0.0164795,0.0358459,
5646,-0.0128174,0.035791,
5648,-0.0274658,0.0356689,
5650,0.0256348,0.0354675,
5652,0.0494385,0.0359558,
5654,-0.0128174,0.0351868,
5656,-0.0170898,0.03526,
5658,0.0494385,0.0352173,
5660,0.0170898,0.0349854,
5662,-0.0531006,0.034668,
5664,-0.00732422,0.0344788,
5666,-0.000610352,0.0341064,
5668,0.00793457,0.0339905,
5670,0.0201416,0.0338989,
5672,-0.0701904,0.0339172,
5674,-0.0140381,0.0335083,
5676,0.0280762,0.0333618,
5678,-0.0457764,0.0333435,
5680,0.0634766,0.0333923,
5682,0.00427246,0.0333801,
5684,-0.0561523,0.033844,
5686,-0.00183105,0.0334534,
5688,-0.0390625,0.0335999,
5690,-0.00488281,0.0329285,
5692,0.0378418,0.0329895,
5694,0.00244141,0.0329773,
5696,-0.108643,0.0338257,
5698,0.0158691,0.0333557,
5700,0.032959,0.0327454,
5702,0.0512695,0.0331726,
5704,-0.020752,0.0331848,
5706,-0.0299072,0.0326782,
5708,0.0280762,0.0328247,
5710,0.0299072,0.0327393,
5712,-0.0750732,0.0328796,
5714,-0.00671387,0.0325378,
5716,0.0189209,0.0326538,
5718,-0.0231934,0.0324951,
5720,0.00244141,0.0320374,
5722,-0.0683594,0.0325623,
5724,0.0170898,0.0325806,
5726,0.0689697,0.0332031,
5728,-0.0244141,0.0328796,
5730,-0.0299072,0.0331177,
5732,-0.0457764,0.0330261,
5734,0.078125,0.0334595,
5736,0.0628662,0.0339417,
5738,-0.067749,0.0343323,
5740,-0.0244141,0.034436,
5742,0.012207,0.0342102,
5744,0.00366211,0.0339966,
5746,0.0366211,0.0336975,
5748,-0.00793457,0.033667,
5750,0.0140381,0.0336609,
5752,-0.0817871,0.0341248,
5754,0.0524902,0.0341187,
5756,0.0482178,0.0344788,
5758,0.0115967,0.0344482,
5760,-0.045166,0.034491,
5762,-0.0994873,0.0351807,
5764,0.0219727,0.0350525,
5766,-0.0378418,0.0352295,
5768,-0.022583,0.035083,
5770,0,0.0349854,
5772,-0.0372314,0.0352173,
5774,0.0250244,0.0349243,
5776,-0.0219727,0.0348999,
5778,0.03479,0.0344238,
5780,0.0946045,0.034845,
5782,0.0457764,0.0348999,
5784,0.101318,0.0358398,
5786,0.0518799,0.0354736,
5788,0.0402832,0.0353943,
5790,0.0671387,0.0356445,
5792,0.107422,0.0361206,
5794,0.0115967,0.0360718,
5796,0.0775146,0.0363464,
5798,-0.159912,0.0376465,
5800,-0.0579834,0.0377319,
5802,0.117798,0.038739,
5804,0.0665283,0.0391296,
5806,-0.0567627,0.0396973,
5808,-0.022583,0.0395447,
5810,-0.118408,0.0405701,
5812,-0.0482178,0.0409485,
5814,0.00854492,0.0406799,
5816,-0.0341797,0.0410095,
5818,0.0323486,0.0411682,
5820,0.0512695,0.0416138,
5822,-0.0549316,0.0408936,
5824,-0.10437,0.0413147,
5826,-0.0976563,0.0420593,
5828,0.043335,0.0411377,
5830,0.0866699,0.0418579,
5832,-0.0524902,0.0421753,
5834,-0.0848389,0.0429199,
5836,-0.149536,0.0440979,
5838,-0.202637,0.0453064,
5840,0.0396729,0.0455139,
5842,0.10437,0.0462402,
5844,-0.0408936,0.0464844,
5846,0.0219727,0.0465759,
5848,0.0280762,0.046582,
5850,-0.128174,0.0476074,
5852,-0.0152588,0.0472656,
5854,0.0585938,0.0477234,
5856,0.0170898,0.0477234,
5858,0.0164795,0.0473938,
5860,-0.0250244,0.0474731,
5862,-0.0830078,0.0477722,
5864,0.143433,0.0491333,
5866,-0.0177002,0.0493042,
5868,-0.057373,0.0497986,
5870,0.065918,0.0502563,
5872,0.0408936,0.0499634,
5874,0.0756836,0.0505798,
5876,-0.0775146,0.0510742,
5878,-0.153198,0.0521484,
5880,0.0762939,0.0522766,
5882,0.00732422,0.0523071,
5884,-0.0469971,0.0522156,
5886,-0.043335,0.0526306,
5888,-0.0805664,0.0530457,
5890,0.00793457,0.0530762,
5892,0.0518799,0.0532166,
5894,0.00732422,0.0532654,
5896,0.0140381,0.0523193,
5898,0.0634766,0.0527954,
5900,0.0445557,0.0529114,
5902,0.0238037,0.0526367,
5904,0.101318,0.0534424,
5906,0.0360107,0.0535034,
5908,-0.0372314,0.053595,
5910,0.00488281,0.0533447,
5912,0.0292969,0.052887,
5914,-0.032959,0.0531494,
5916,-0.0299072,0.0532593,
5918,0.00915527,0.0531189,
5920,-0.0140381,0.0532349,
5922,-0.0543213,0.0530945,
5924,0.00915527,0.0530151,
5926,-0.0146484,0.0524719,
5928,-0.0598145,0.0528259,
5930,0.0488281,0.0530151,
5932,0.00854492,0.0526428,
5934,0.0732422,0.052594,
5936,-0.0231934,0.0521973,
5938,-0.112915,0.0526489,
5940,0.0531006,0.0529358,
5942,0.0769043,0.0535828,
5944,-0.0378418,0.0539246,
5946,0.0128174,0.0536865,
5948,-0.0463867,0.054071,
5950,0.0183105,0.0541138,
5952,0.0427246,0.0537231,
5954,-0.012207,0.0533203,
5956,-0.0158691,0.0529968,
5958,-0.000610352,0.052887,
5960,-0.0268555,0.0527039,
5962,-0.00305176,0.0517395,
5964,0.0421143,0.0519409,
5966,-0.0592041,0.0521545,
5968,0.012207,0.0520508,
5970,0.0921631,0.0529724,
5972,-0.067749,0.0532776,
5974,0.00366211,0.053064,
5976,-0.000610352,0.0528503,
5978,0.00610352,0.0525635,
5980,-0.0128174,0.0517456,
5982,-0.0390625,0.0516785,
5984,-0.0396729,0.051062,
5986,0.0164795,0.050708,
5988,-0.0744629,0.0510498,
5990,0,0.0503784,
5992,0.0476074,0.0497803,
5994,-0.0445557,0.0501099,
5996,-0.00305176,0.0493652,
5998,0.00183105,0.0477844,
6000,-0.0292969,0.0474976,
6002,0.0335693,0.0466553,
6004,-0.0512695,0.0465027,
6006,0.000610352,0.0459412,
6008,0.0750732,0.0464661,
6010,-0.00854492,0.0453674,
6012,-0.0732422,0.0456177,
6014,0.0384521,0.0459167,
6016,-0.0317383,0.0458923,
6018,-0.0219727,0.0457886,
6020,0.00183105,0.0452942,
6022,-0.109253,0.0458374,
6024,-0.0311279,0.045105,
6026,-0.0170898,0.0442993,
6028,-0.0561523,0.0444275,
6030,-0.00549316,0.0436157,
6032,-0.0134277,0.0432251,
6034,-0.0384521,0.0427612,
6036,-0.00305176,0.0412964,
6038,-0.0415039,0.0396851,
6040,0.0299072,0.0395874,
6042,0.10498,0.0395935,
6044,-0.0933838,0.0401184,
6046,-0.00610352,0.0399597,
6048,0.0152588,0.0398315,
6050,-0.0323486,0.0388733,
6052,-0.0427246,0.0391479,
6054,-0.0146484,0.0387085,
6056,-0.0915527,0.0394531,
6058,0.012207,0.0394104,
6060,-0.0378418,0.0395386,
6062,-0.0616455,0.039325,
6064,-0.0189209,0.0380798,
6066,-0.0244141,0.038147,
6068,-0.00244141,0.0375977,
6070,0.0201416,0.0371399,
6072,-0.0921631,0.0376526,
6074,0.00244141,0.0369202,
6076,-0.020752,0.0363525,
6078,-0.0201416,0.035022,
6080,0.00915527,0.0343506,
6082,-0.0189209,0.0344666,
6084,-0.0323486,0.0343201,
6086,0.022583,0.0341125,
6088,-0.0476074,0.033783,
6090,-0.0280762,0.0339844,
6092,0.00366211,0.0335022,
6094,-0.0579834,0.0340088,
6096,-0.0262451,0.0341309,
6098,0.0134277,0.0336304,
6100,-0.0213623,0.0333984,
6102,0.10498,0.0342102,
6104,-0.0366211,0.0335632,
6106,-0.0976563,0.0341797,
6108,0.0634766,0.0344421,
6110,-0.0012207,0.0344055,
6112,-0.102539,0.0351379,
6114,-0.00183105,0.0348267,
6116,-0.0775146,0.0353027,
6118,-0.0585938,0.0357971,
6120,-0.0305176,0.0359619,
6122,-0.0878906,0.0362976,
6124,0.00427246,0.0362488,
6126,-0.0109863,0.0362122,
6128,-0.043335,0.0360474,
6130,0.032959,0.0358887,
6132,0.0109863,0.0359131,
6134,0.00671387,0.0352478,
6136,0.0140381,0.0351563,
6138,-0.0476074,0.0345032,
6140,0.0109863,0.034082,
6142,0.0317383,0.0336304,
6144,-0.0152588,0.0334045,
6146,-0.0714111,0.0339905,
6148,0.00427246,0.0335693,
6150,-0.0457764,0.033844,
6152,0.0140381,0.0335571,
6154,0.065918,0.0340942,
6156,-0.0366211,0.0343018,
6158,-0.0567627,0.0348633,
6160,0.0286865,0.0348816,
6162,0.00671387,0.0349182,
6164,0.00793457,0.0345764,
6166,-0.0598145,0.0345825,
6168,-0.0323486,0.0347839,
6170,0.022583,0.0340881,
6172,-0.065918,0.0340698,
6174,-0.010376,0.034137,
6176,0.0244141,0.034375,
6178,-0.0341797,0.0346558,
6180,-0.010376,0.0346313,
6182,-0.00427246,0.0342834,
6184,-0.0335693,0.0342224,
6186,0.00549316,0.0341125,
6188,-0.0616455,0.0339844,
6190,-0.00183105,0.0340027,
6192,0.0164795,0.0336914,
6194,0.00183105,0.0332642,
6196,0.00427246,0.0332764,
6198,-0.0457764,0.0337158,
6200,0.0299072,0.0337219,
6202,0.0274658,0.0336609,
6204,-0.0402832,0.033551,
6206,-0.0585938,0.0341309,
6208,0.0299072,0.0336792,
6210,-0.0201416,0.0337952,
6212,-0.0646973,0.0337097,
6214,0.0830078,0.0341553,
6216,-0.0726318,0.0345642,
6218,-0.00671387,0.0344116,
6220,0.03479,0.0347412,
6222,-0.0250244,0.0338989,
6224,-0.00427246,0.0336304,
6226,-0.00305176,0.03349,
6228,-0.0482178,0.0334106,
6230,0.0439453,0.0337952,
6232,-0.0384521,0.0340454,
6234,-0.0292969,0.0339539,
6236,0.0177002,0.0341003,
6238,-0.00854492,0.0337708,
6240,-0.0543213,0.0340149,
6242,0.022583,0.0331909,
6244,-0.0396729,0.0326538,
6246,-0.00244141,0.0326172,
6248,0.0201416,0.032666,
6250,-0.0140381,0.0324829,
6252,-0.0134277,0.0321899,
6254,0.0195313,0.0322388,
6256,-0.0408936,0.0317322,
6258,0.0439453,0.0320496,
6260,-0.0469971,0.0321411,
6262,-0.045166,0.0319763,
6264,0.0158691,0.0319458,
6266,-0.032959,0.0320312,
6268,-0.0323486,0.0323303,
6270,0.0177002,0.0323059,
6272,-0.0738525,0.0321228,
6274,0.0213623,0.032312,
6276,0.0354004,0.0324585,
6278,-0.00549316,0.032312,
6280,-0.0366211,0.0325867,
6282,-0.00915527,0.032489,
6284,-0.0183105,0.0323486,
6286,0.0317383,0.0324402,
6288,-0.0421143,0.0323853,
6290,-0.0140381,0.0322449,
6292,0.03479,0.0325562,
6294,-0.0195313,0.0321716,
6296,-0.00976563,0.0320068,
6298,0.0189209,0.0320618,
6300,-0.0592041,0.0324402,
6302,0.00427246,0.0314331,
6304,0.0128174,0.0311951,
6306,-0.0714111,0.0309326,
6308,0.00183105,0.0303162,
6310,-0.022583,0.0305298,
6312,-0.0524902,0.0300293,
6314,0.0445557,0.0304565,
6316,-0.0213623,0.029895,
6318,0.00488281,0.0293579,
6320,0.0274658,0.0293274,
6322,-0.0415039,0.0288635,
6324,0.0195313,0.0290161,
6326,0.0140381,0.0290466,
6328,-0.0244141,0.0288574,
6330,0.00915527,0.0286194,
6332,-0.03479,0.0288574,
6334,-0.0158691,0.028949,
6336,0.010376,0.0289124,
6338,-0.0250244,0.0286865,
6340,-0.00549316,0.0286316,
6342,0.032959,0.0286438,
6344,-0.0488281,0.0289795,
6346,-0.043335,0.0286987,
6348,0.0250244,0.0289063,
6350,-0.0372314,0.0288208,
6352,-0.010376,0.0287842,
6354,0.0231934,0.0283569,
6356,-0.0476074,0.0284668,
6358,0.0280762,0.0281799,
6360,-0.0213623,0.0281067,
6362,-0.0323486,0.028363,
6364,0.0476074,0.0287598,
6366,-0.0213623,0.0283752,
6368,0.000610352,0.0280579,
6370,0.00244141,0.0278564,
6372,-0.0384521,0.0275818,
6374,0.0488281,0.0279663,
6376,-0.0299072,0.0280212,
6378,-0.0402832,0.0280823,
6380,0.0372314,0.0283508,
6382,0.00427246,0.0283508,
6384,0.0238037,0.0282532,
6386,-0.0305176,0.0285034,
6388,-0.0158691,0.0280457,
6390,-0.00976563,0.028125,
6392,0.0421143,0.0283813,
6394,-0.0402832,0.0287659,
6396,-0.0585938,0.0293091,
6398,0.012207,0.0289734,
6400,-0.0427246,0.0291016,
6402,0.00610352,0.0288879,
6404,-0.0128174,0.0286133,
6406,-0.0640869,0.0286682,
6408,0.0598145,0.0289673,
6410,-0.0164795,0.0289307,
6412,-0.0384521,0.0286682,
6414,0.03479,0.028186,
6416,-0.0494385,0.0279541,
6418,0.020752,0.0280945,
6420,0.00854492,0.027832,
6422,-0.0549316,0.0281311,
6424,0.0299072,0.0283875,
6426,0.0164795,0.0285217,
6428,0.00366211,0.0280762,
6430,-0.0280762,0.0279175,
6432,0.000610352,0.0275391,
6434,0,0.0272461,
6436,0.0158691,0.0272278,
6438,-0.0537109,0.0276794,
6440,-0.0128174,0.0272644,
6442,0.0177002,0.0272156,
6444,-0.0219727,0.0270386,
6446,-0.0250244,0.0272644,
6448,0.0238037,0.027301,
6450,-0.0158691,0.0273193,
6452,0.00610352,0.0272461,
6454,0.0164795,0.0272156,
6456,-0.00488281,0.0268555,
6458,0.0408936,0.026825,
6460,0.00976563,0.0264526,
6462,-0.0384521,0.0263855,
6464,0.078125,0.0270081,
6466,-0.0280762,0.0269592,
6468,-0.0274658,0.0269104,
6470,0.0543213,0.0272766,
6472,-0.0494385,0.0270325,
6474,0.022583,0.0270447,
6476,-0.00671387,0.0267578,
6478,-0.0372314,0.0270752,
6480,0.0164795,0.0268738,
6482,-0.00366211,0.0268188,
6484,-0.0115967,0.0267517,
6486,0.0317383,0.0267517,
6488,-0.0286865,0.0266174,
6490,-0.012207,0.0265991,
6492,0.0140381,0.0263916,
6494,-0.0189209,0.0263855,
6496,-0.0262451,0.0265503,
6498,0.0500488,0.0268616,
6500,-0.0317383,0.0265869,
6502,-0.00854492,0.0266296,
6504,0.0219727,0.0267212,
6506,-0.00915527,0.0260986,
6508,0.0128174,0.0262085,
6510,0.020752,0.0261902,
6512,-0.0286865,0.0259521,
6514,0.0177002,0.0256836,
6516,-0.0250244,0.0257202,
6518,-0.00793457,0.0257507,
6520,0.0244141,0.0257202,
6522,-0.0671387,0.0259766,
6524,0.00854492,0.0258667,
6526,0.00366211,0.0257629,
6528,-0.0311279,0.0258301,
6530,0.00976563,0.0258362,
6532,0.0164795,0.0256531,
6534,0.00183105,0.0255127,
6536,0.043335,0.0258423,
6538,-0.0238037,0.0258301,
6540,-0.00488281,0.025824,
6542,0.03479,0.0258423,
6544,-0.012207,0.0254761,
6546,-0.0213623,0.0252563,
6548,-0.012207,0.0251282,
6550,-0.0317383,0.0250732,
6552,0,0.0249695,
6554,0.020752,0.0249451,
6556,-0.0408936,0.0248779,
6558,0.0390625,0.0249878,
6560,-0.00854492,0.0248596,
6562,-0.00915527,0.0246277,
6564,0.0628662,0.0247803,
6566,-0.0476074,0.0250427,
6568,-0.0115967,0.0251526,
6570,0.0323486,0.0254517,
6572,-0.0567627,0.0256348,
6574,0.0164795,0.0253113,
6576,0.0158691,0.0251709,
6578,-0.0244141,0.0250122,
6580,-0.00915527,0.0247314,
6582,0.0280762,0.0249695,
6584,-0.00366211,0.0247681,
6586,0.0146484,0.0246094,
6588,-0.0268555,0.0247192,
6590,-0.0146484,0.0247681,
6592,0.0311279,0.0246582,
6594,-0.0219727,0.0244751,
6596,-0.032959,0.0242188,
6598,0.0354004,0.0244507,
6600,-0.0372314,0.0243958,
6602,-0.0012207,0.0243469,
6604,0.0372314,0.0245911,
6606,-0.032959,0.0242798,
6608,0.0250244,0.0239319,
6610,-0.00488281,0.0238159,
6612,-0.0299072,0.0237305,
6614,0.0390625,0.0237732,
6616,-0.0195313,0.0234741,
6618,0.0158691,0.0234253,
6620,-0.00549316,0.0233948,
6622,-0.0335693,0.0231812,
6624,0.0354004,0.0232361,
6626,0.0195313,0.0232666,
6628,-0.0177002,0.023407,
6630,0.0158691,0.0232849,
6632,0,0.0232788,
6634,-0.0256348,0.0235352,
6636,0.0274658,0.0236511,
6638,-0.032959,0.0234436,
6640,-0.0140381,0.0234558,
6642,0.0152588,0.0234314,
6644,-0.0341797,0.0235535,
6646,-0.022583,0.0235291,
6648,0.0262451,0.0235535,
6650,-0.0366211,0.023761,
6652,0.0152588,0.0238525,
6654,0.0189209,0.023877,
6656,-0.0585938,0.0244141,
6658,0.0305176,0.0243103,
6660,0.00976563,0.0243103,
6662,-0.0372314,0.0242981,
6664,0.0201416,0.0237183,
6666,-0.0177002,0.0236145,
6668,-0.0134277,0.0234741,
6670,0.00793457,0.0230103,
6672,-0.0506592,0.0230225,
6674,0.0012207,0.0228088,
6676,0.0115967,0.0228577,
6678,-0.0323486,0.0228088,
6680,0.00671387,0.0227112,
6682,-0.0134277,0.0228088,
6684,-0.0299072,0.0229919,
6686,0.00488281,0.0227234,
6688,0.00244141,0.0224609,
6690,-0.0177002,0.0225159,
6692,0.0262451,0.0226379,
6694,-0.0286865,0.0227356,
6696,-0.0183105,0.0226562,
6698,0.0372314,0.0225281,
6700,-0.0134277,0.022345,
6702,0.00915527,0.0223511,
6704,0.00610352,0.0221924,
6706,-0.032959,0.0224304,
6708,0.0402832,0.0227051,
6710,0.0134277,0.0226318,
6712,-0.0402832,0.0227478,
6714,0.0543213,0.023114,
6716,-0.0317383,0.0231812,
6718,-0.0158691,0.0232605,
6720,0.0531006,0.0235474,
6722,-0.0421143,0.0232971,
6724,0.012207,0.0233337,
6726,-0.00305176,0.0233276,
6728,-0.0189209,0.0232056,
6730,0.0115967,0.0232239,
6732,-0.00366211,0.0230957,
6734,-0.0238037,0.0233154,
6736,0.0408936,0.023291,
6738,-0.0177002,0.02323,
6740,-0.0213623,0.0233948,
6742,0.0219727,0.0232666,
6744,0.00488281,0.0231934,
6746,-0.0177002,0.0231567,
6748,0.0280762,0.0233154,
6750,-0.032959,0.0233276,
6752,0.0219727,0.0235474,
6754,0.0305176,0.023645,
6756,-0.0140381,0.0233765,
6758,0.0128174,0.023114,
6760,0.00244141,0.023053,
6762,-0.0109863,0.0230713,
6764,0.0421143,0.0228638,
6766,-0.0372314,0.02276,
6768,0.00427246,0.0226868,
6770,0.0231934,0.0225952,
6772,-0.0445557,0.0224731,
6774,0.0109863,0.0224182,
6776,0.012207,0.0223816,
6778,-0.00366211,0.0221741,
6780,0.0012207,0.0220947,
6782,0.00488281,0.0218628,
6784,-0.0292969,0.0221191,
6786,0.0378418,0.0223511,
6788,-0.0128174,0.0222107,
6790,-0.0164795,0.022229,
6792,0.0250244,0.022168,
6794,-0.00488281,0.0219971,
6796,-0.0250244,0.0219177,
6798,0.0469971,0.0220337,
6800,-0.0250244,0.0219116,
6802,0.0244141,0.0221436,
6804,0,0.0217712,
6806,-0.0256348,0.021698,
6808,0.0299072,0.0217468,
6810,0.0146484,0.0218445,
6812,-0.0646973,0.0221924,
6814,0.00854492,0.0218872,
6816,-0.0305176,0.0219971,
6818,0.0152588,0.021991,
6820,0.020752,0.0221436,
6822,-0.0756836,0.0225647,
6824,0.0158691,0.0223694,
6826,0.0262451,0.0224365,
6828,-0.00671387,0.0223267,
6830,0.0323486,0.0224915,
6832,-0.0219727,0.0227112,
6834,0.00244141,0.0224792,
6836,0.0299072,0.0225037,
6838,-0.0286865,0.0224609,
6840,-0.0115967,0.0224365,
6842,0.0183105,0.022467,
6844,-0.0128174,0.0222534,
6846,-0.0292969,0.0223206,
6848,0.0256348,0.0223145,
6850,-0.0268555,0.0222168,
6852,0.0250244,0.0223145,
6854,0.0286865,0.0224121,
6856,-0.0524902,0.0223511,
6858,0.0354004,0.0223999,
6860,0.0146484,0.0224487,
6862,-0.0366211,0.0224426,
6864,0.043335,0.0226746,
6866,-0.0177002,0.0226746,
6868,-0.00488281,0.0225891,
6870,0.0402832,0.0229126,
6872,-0.0384521,0.0227905,
6874,0,0.0227783,
6876,0.0183105,0.0228455,
6878,-0.0183105,0.0227051,
6880,0.00915527,0.0227295,
6882,0.00305176,0.0226257,
6884,-0.0244141,0.0225708,
6886,0.0158691,0.0226807,
6888,-0.00366211,0.0226929,
6890,-0.0140381,0.0226562,
6892,0.0286865,0.0226807,
6894,-0.0012207,0.022406,
6896,-0.00183105,0.0222412,
6898,0.0262451,0.0221313,
6900,-0.0299072,0.0222961,
6902,0.0341797,0.0225464,
6904,0.0280762,0.0227661,
6906,-0.0317383,0.0227539,
6908,0.0415039,0.0227661,
6910,0.00244141,0.0226562,
6912,-0.0579834,0.0228333,
6914,0.0524902,0.0228149,
6916,-0.0280762,0.0227783,
6918,0.010376,0.0227234,
6920,0.0250244,0.0224426,
6922,-0.0646973,0.0226685,
6924,-0.00183105,0.0225647,
6926,0.0164795,0.022699,
6928,-0.0219727,0.0227295,
6930,-0.00427246,0.0226562,
6932,0.00427246,0.0226624,
6934,-0.032959,0.0227539,
6936,0.0164795,0.0225098,
6938,-0.00305176,0.0223633,
6940,-0.0134277,0.0222839,
6942,0.020752,0.0222717,
6944,-0.00671387,0.02229,
6946,-0.020752,0.0223206,
6948,0.0311279,0.0223511,
6950,-0.0195313,0.0222168,
6952,0.0109863,0.0221069,
6954,0.0360107,0.0221619,
6956,-0.0494385,0.0225159,
6958,0.0585938,0.0229736,
6960,0.0195313,0.0231445,
6962,-0.0158691,0.0231934,
6964,0.0585938,0.0233582,
6966,0.0128174,0.023114,
6968,0.00793457,0.0231506,
6970,0.0445557,0.0233643,
6972,-0.032959,0.0232483,
6974,0.00244141,0.0231628,
6976,0.0128174,0.0231689,
6978,-0.0292969,0.0234253,
6980,-0.0177002,0.0235901,
6982,-0.00793457,0.0236206,
6984,-0.0335693,0.0236633,
6986,0.00305176,0.0233154,
6988,-0.00732422,0.0232605,
6990,-0.0231934,0.0233276,
6992,0.0262451,0.0233398,
6994,-0.00488281,0.0233398,
6996,-0.0231934,0.0233215,
6998,0.0292969,0.0231445,
7000,-0.0219727,0.023114,
7002,0.012207,0.0229919,
7004,0.0262451,0.0232544,
7006,-0.0463867,0.0234619,
7008,0.0335693,0.0234985,
7010,0.0366211,0.0237183,
7012,-0.0463867,0.0235352,
7014,0,0.0234497,
7016,0.0360107,0.0235046,
7018,0.0189209,0.0235413,
7020,0.00915527,0.0234253,
7022,-0.0494385,0.0231628,
7024,0.012207,0.0231262,
7026,0.0189209,0.023053,
7028,-0.0140381,0.0231262,
7030,-0.012207,0.0229248,
7032,-0.000610352,0.0227112,
7034,-0.0305176,0.0229919,
7036,0.0128174,0.022821,
7038,0.00427246,0.0225769,
7040,-0.0250244,0.0227112,
7042,0.0231934,0.02276,
7044,-0.00793457,0.0227112,
7046,-0.0299072,0.0227173,
7048,0.0427246,0.0228882,
7050,-0.03479,0.0229675,
7052,-0.00671387,0.0227844,
7054,0.0384521,0.0228821,
7056,-0.0512695,0.0228699,
7058,0.0274658,0.0227905,
7060,0.000610352,0.0226501,
7062,-0.0286865,0.0225708,
7064,0.0372314,0.0225098,
7066,-0.0164795,0.0224976,
7068,0.0189209,0.0226379,
7070,0.0341797,0.0225769,
7072,-0.0201416,0.0223938,
7074,-0.00732422,0.022467,
7076,0.00854492,0.0223694,
7078,-0.0256348,0.0224426,
7080,0.00976563,0.0224487,
7082,0.00427246,0.0224609,
7084,-0.0653076,0.0228699,
7086,-0.00671387,0.0227783,
7088,-0.00854492,0.0228271,
7090,-0.0231934,0.0229187,
7092,0.0170898,0.0228027,
7094,0.010376,0.0228943,
7096,-0.0402832,0.0232788,
7098,-0.0164795,0.0231812,
7100,-0.00915527,0.0229736,
7102,0.0164795,0.0227966,
7104,0.010376,0.0226196,
7106,-0.0512695,0.0228149,
7108,0.0280762,0.0226807,
7110,0.0280762,0.022937,
7112,-0.0463867,0.022821,
7114,0.00427246,0.0223389,
7116,-0.00915527,0.0221497,
7118,0.020752,0.0222534,
7120,0.0152588,0.0221558,
7122,-0.0549316,0.0220581,
7124,0.010376,0.0221436,
7126,0.0256348,0.0222351,
7128,-0.0250244,0.0222656,
7130,0.0195313,0.0224182,
7132,-0.0146484,0.022522,
7134,0.00976563,0.02229,
7136,0.0274658,0.0223999,
7138,-0.00732422,0.0224426,
7140,-0.0213623,0.022522,
7142,0.0292969,0.0226074,
7144,0.0128174,0.0226685,
7146,-0.0323486,0.0227844,
7148,0.0354004,0.0228271,
7150,-0.0219727,0.0228516,
7152,0.010376,0.0228455,
7154,0.0268555,0.0227539,
7156,-0.0561523,0.022821,
7158,0.0415039,0.0226501,
7160,0.0158691,0.0226135,
7162,-0.0335693,0.0227905,
7164,0.032959,0.0225342,
7166,-0.0146484,0.0225525,
7168,-0.00244141,0.0224976,
7170,0.0311279,0.0223633,
7172,-0.0482178,0.0225159,
7174,-0.000610352,0.0224976,
7176,0.00366211,0.022406,
7178,-0.0146484,0.0222595,
7180,-0.00732422,0.0221558,
7182,0.00549316,0.0221313,
7184,-0.0299072,0.0220947,
7186,0.020752,0.0222717,
7188,-0.00427246,0.0222412,
7190,-0.0292969,0.0223022,
7192,0.0323486,0.0223633,
7194,0.0115967,0.0224304,
7196,-0.0366211,0.0225647,
7198,0.0366211,0.0226379,
7200,-0.0274658,0.0226929,
7202,0.00854492,0.0226562,
7204,0.032959,0.0227234,
7206,-0.0488281,0.0227478,
7208,0.00549316,0.022467,
7210,0.0012207,0.022113,
7212,-0.0244141,0.0218933,
7214,0.022583,0.0221191,
7216,-0.0134277,0.0218933,
7218,-0.00976563,0.0218018,
7220,0.00488281,0.021759,
7222,-0.0268555,0.0215332,
7224,0.00549316,0.0214661,
7226,0.0219727,0.0214966,
7228,-0.0305176,0.0216614,
7230,-0.0164795,0.0217041,
7232,0.0170898,0.0218689,
7234,-0.0231934,0.0217957,
7236,0,0.0216675,
7238,0.00732422,0.021698,
7240,-0.0292969,0.0217407,
7242,0.032959,0.0218384,
7244,-0.00732422,0.0218323,
7246,-0.0384521,0.0219177,
7248,0.0286865,0.0217773,
7250,-0.022583,0.0216553,
7252,-0.0012207,0.0216003,
7254,0.0292969,0.0215088,
7256,-0.0549316,0.0215454,
7258,0.0195313,0.0214661,
7260,0.0109863,0.0215698,
7262,-0.0335693,0.0216187,
7264,0.0262451,0.0215088,
7266,-0.0335693,0.0216797,
7268,0.00793457,0.0215698,
7270,0.0231934,0.02146,
7272,-0.0622559,0.0218811,
7274,0.00305176,0.0218384,
7276,0.022583,0.0219788,
7278,0.00732422,0.0217957,
7280,-0.0146484,0.0218445,
7282,-0.0146484,0.0219482,
7284,0.00854492,0.0213806,
7286,0.0134277,0.0214478,
7288,-0.0152588,0.0215149,
7290,-0.0244141,0.0215271,
7292,0.0286865,0.0216431,
7294,0.0244141,0.0217834,
7296,-0.032959,0.0217102,
7298,0.00732422,0.0216187,
7300,0.00244141,0.0215515,
7302,0.010376,0.0214905,
7304,0.0317383,0.0217041,
7306,-0.0604248,0.0217957,
7308,0.020752,0.0217224,
7310,0.00732422,0.0215149,
7312,-0.0231934,0.021283,
7314,0.0390625,0.0216309,
7316,-0.0445557,0.0219849,
7318,0.0183105,0.0219604,
7320,0.0128174,0.021936,
7322,-0.0390625,0.0217773,
7324,-0.0012207,0.0216858,
7326,0.0189209,0.0216187,
7328,-0.0177002,0.0215454,
7330,-0.0012207,0.0213623,
7332,0.0183105,0.0213989,
7334,-0.0128174,0.0214294,
7336,0.0183105,0.0213379,
7338,0.00244141,0.0212891,
7340,-0.00793457,0.0211548,
7342,0.0238037,0.0210999,
7344,-0.0012207,0.0209839,
7346,-0.0292969,0.0209534,
7348,0.0134277,0.0207336,
7350,-0.0384521,0.0208984,
7352,0.00671387,0.0208618,
7354,0.0292969,0.0208862,
7356,-0.0476074,0.0208008,
7358,0.0183105,0.0205688,
7360,0.00854492,0.0204956,
7362,-0.0317383,0.0204773,
7364,0.0421143,0.0205688,
7366,-0.0354004,0.0207764,
7368,0.00488281,0.0208008,
7370,0.0280762,0.0207703,
7372,-0.0366211,0.0206543,
7374,0.000610352,0.0206543,
7376,0.022583,0.0208435,
7378,-0.0189209,0.0208862,
7380,0.00183105,0.0208313,
7382,0.032959,0.021106,
7384,-0.0305176,0.0211121,
7386,0.0305176,0.0212097,
7388,0.00793457,0.0212463,
7390,-0.00793457,0.0210327,
7392,0.0195313,0.0209045,
7394,-0.0012207,0.0208008,
7396,-0.0292969,0.0207275,
7398,0.032959,0.0206909,
7400,-0.020752,0.0206238,
7402,0.00732422,0.0206116,
7404,0.0250244,0.0205322,
7406,-0.0488281,0.0205322,
7408,0.0158691,0.020636,
7410,0.0164795,0.0207886,
7412,-0.0256348,0.0208008,
7414,0.0335693,0.0209106,
7416,-0.0134277,0.0209106,
7418,-0.0170898,0.0209839,
7420,0.0183105,0.0211182,
7422,-0.0201416,0.021051,
7424,-0.00183105,0.0210144,
7426,0.0164795,0.0209595,
7428,-0.0128174,0.0207825,
7430,-0.00549316,0.0206726,
7432,0.0256348,0.0207581,
7434,-0.0183105,0.0207092,
7436,0.00854492,0.0207947,
7438,0.0195313,0.0209167,
7440,-0.0280762,0.0209045,
7442,0.03479,0.0209229,
7444,0,0.0208496,
7446,-0.0286865,0.020752,
7448,0.0402832,0.0208679,
7450,-0.0250244,0.0208923,
7452,0.0195313,0.0210754,
7454,0.0341797,0.0211243,
7456,-0.0494385,0.0210693,
7458,0.0213623,0.0210876,
7460,0.0317383,0.0212952,
7462,-0.0335693,0.0212952,
7464,0.0366211,0.0213989,
7466,-0.010376,0.021167,
7468,-0.0195313,0.021283,
7470,0.020752,0.0212585,
7472,-0.0396729,0.0210327,
7474,-0.00488281,0.021051,
7476,0.0213623,0.0210388,
7478,-0.0231934,0.0211975,
7480,-0.0152588,0.0212036,
7482,0.0201416,0.0212585,
7484,-0.0341797,0.0215149,
7486,0.010376,0.0214844,
7488,0.0219727,0.0215515,
7490,-0.0415039,0.0217224,
7492,0.0323486,0.021759,
7494,-0.00244141,0.0215393,
7496,-0.0366211,0.0215759,
7498,0.0427246,0.0219299,
7500,-0.0341797,0.0222473,
7502,0.00366211,0.0221802,
7504,0.0335693,0.0221985,
7506,-0.0531006,0.0221252,
7508,0.0390625,0.0223083,
7510,0.00671387,0.0223022,
7512,-0.0256348,0.0223267,
7514,0.0146484,0.0220825,
7516,-0.0012207,0.0216492,
7518,-0.0158691,0.0216248,
7520,0.00976563,0.0215942,
7522,-0.0305176,0.0215088,
7524,-0.0128174,0.0216248,
7526,0.0115967,0.0215515,
7528,-0.0183105,0.0215576,
7530,-0.0164795,0.0217102,
7532,0.0177002,0.0217041,
7534,-0.020752,0.0217834,
7536,0.0158691,0.021759,
7538,0.0201416,0.021936,
7540,-0.0305176,0.0221619,
7542,0.0262451,0.0221863,
7544,-0.00183105,0.0221924,
7546,-0.0244141,0.0221436,
7548,0.0384521,0.0223938,
7550,-0.0158691,0.022168,
7552,0.012207,0.0222229,
7554,0.0201416,0.0221313,
7556,-0.0439453,0.0220947,
7558,0.0256348,0.022168,
7560,0.0134277,0.0222168,
7562,-0.032959,0.022229,
7564,0.0653076,0.0224609,
7566,-0.0531006,0.0226379,
7568,0.0109863,0.022699,
7570,0.022583,0.022644,
7572,-0.0445557,0.0227234,
7574,0.00732422,0.0227905,
7576,0.0146484,0.0227112,
7578,-0.0238037,0.02276,
7580,-0.0170898,0.0229126,
7582,0.0244141,0.0228271,
7584,-0.0213623,0.0227356,
7586,0.0128174,0.0225586,
7588,0.0140381,0.0226196,
7590,-0.0311279,0.0228516,
7592,0.043335,0.0230896,
7594,-0.0012207,0.0230896,
7596,-0.0396729,0.0231934,
7598,0.0427246,0.023291,
7600,-0.0311279,0.0233948,
7602,0.00976563,0.0234192,
7604,0.0238037,0.023407,
7606,-0.0622559,0.0235413,
7608,0.0164795,0.0235474,
7610,0.0189209,0.0235718,
7612,-0.0274658,0.0235901,
7614,0.0134277,0.0233887,
7616,-0.00976563,0.0233521,
7618,-0.0152588,0.0233337,
7620,0.0195313,0.0233459,
7622,-0.0238037,0.0233826,
7624,-0.00488281,0.0234131,
7626,0.0238037,0.0234863,
7628,-0.010376,0.0234619,
7630,-0.0189209,0.0235962,
7632,0.0286865,0.0236267,
7634,-0.0146484,0.0235901,
7636,0.0238037,0.0237427,
7638,0.0213623,0.023761,
7640,-0.0256348,0.0237366,
7642,0.0280762,0.0236694,
7644,0.00305176,0.0237,
7646,-0.0286865,0.0237,
7648,0.0427246,0.0237244,
7650,-0.0299072,0.0237732,
7652,-0.0146484,0.0237244,
7654,0.0280762,0.0236633,
7656,-0.0537109,0.0237061,
7658,0.0189209,0.0236816,
7660,0.012207,0.0234863,
7662,-0.0280762,0.0234314,
7664,0.0140381,0.0232056,
7666,-0.0201416,0.0233032,
7668,-0.010376,0.0232117,
7670,0.0170898,0.023175,
7672,-0.0335693,0.023114,
7674,-0.0170898,0.0232361,
7676,0.0146484,0.0231689,
7678,-0.022583,0.0231628,
7680,-0.0238037,0.0232483,
7682,0.0231934,0.0232788,
7684,-0.0366211,0.0233032,
7686,0.010376,0.0233032,
7688,0.0335693,0.0234192,
7690,-0.020752,0.0232117,
7692,0.0158691,0.0230469,
7694,0.010376,0.0231262,
7696,-0.0189209,0.0229492,
7698,-0.0317383,0.0228394,
7700,-0.0134277,0.0226318,
7702,-0.00305176,0.0226257,
7704,0.00488281,0.0223389,
7706,-0.0811768,0.0226196,
7708,0.0128174,0.0223572,
7710,-0.00610352,0.0223511,
7712,-0.0238037,0.0223328,
7714,0.0244141,0.0224304,
7716,0.00366211,0.0224548,
7718,-0.00488281,0.022345,
7720,0.00610352,0.0223083,
7722,-0.0238037,0.0222412,
7724,-0.0109863,0.0222229,
7726,0.0146484,0.0222534,
7728,-0.0158691,0.022229,
7730,-0.0164795,0.022229,
7732,0.0238037,0.02229,
7734,-0.0292969,0.0223755,
7736,0.00305176,0.0222473,
7738,0.022583,0.0222717,
7740,-0.0360107,0.0223267,
7742,0.0311279,0.0223755,
7744,-0.00549316,0.0224121,
7746,-0.0457764,0.0226257,
7748,0.0463867,0.0227051,
7750,-0.0317383,0.0228638,
7752,0.00427246,0.0227844,
7754,0.022583,0.0228088,
7756,-0.0604248,0.0229736,
7758,0.0280762,0.022998,
7760,0.022583,0.0230896,
7762,-0.00366211,0.0227966,
7764,-0.0482178,0.0226257,
7766,-0.00549316,0.0221497,
7768,0.00915527,0.0221313,
7770,0.0244141,0.0221497,
7772,-0.0524902,0.022229,
7774,-0.0213623,0.0223694,
7776,0.0250244,0.0224731,
7778,0.0286865,0.022522,
7780,-0.00610352,0.0224121,
7782,-0.0146484,0.0223145,
7784,-0.010376,0.0222046,
7786,0.022583,0.0223022,
7788,0.0219727,0.0223816,
7790,-0.0598145,0.0226685,
7792,0.0256348,0.0224915,
7794,-0.0012207,0.0224915,
7796,-0.0354004,0.0224487,
7798,0.043335,0.0224548,
7800,-0.0177002,0.0223206,
7802,-0.00854492,0.0223083,
7804,0.0280762,0.0223511,
7806,-0.0616455,0.022345,
7808,0.0201416,0.0223816,
7810,0.010376,0.0222961,
7812,-0.0317383,0.0223389,
7814,0.00366211,0.0222412,
7816,0,0.0221436,
7818,-0.0250244,0.0222412,
7820,0.0195313,0.0222412,
7822,-0.0158691,0.0221619,
7824,-0.00976563,0.0222107,
7826,0.0250244,0.0222229,
7828,-0.0195313,0.0223145,
7830,-0.0256348,0.0223816,
7832,0.0372314,0.022467,
7834,-0.0256348,0.0225769,
7836,0.00183105,0.0223572,
7838,0.0274658,0.0224182,
7840,-0.0445557,0.0226074,
7842,0.00915527,0.0224182,
7844,0.0128174,0.0225159,
7846,-0.032959,0.0225586,
7848,0.0305176,0.0224365,
7850,-0.0134277,0.0222717,
7852,0.000610352,0.0221313,
7854,0.0354004,0.0222046,
7856,-0.0531006,0.0221985,
7858,0.0183105,0.0221924,
7860,0.010376,0.0221741,
7862,-0.0219727,0.022113,
7864,0.00366211,0.0220093,
7866,-0.0109863,0.0219177,
7868,-0.0250244,0.0220642,
7870,0.0164795,0.0220581,
7872,-0.0292969,0.0220154,
7874,-0.0213623,0.0220581,
7876,0.0189209,0.0221008,
7878,-0.0244141,0.0221191,
7880,-0.0311279,0.0221924,
7882,0.0164795,0.0221252,
7884,-0.0402832,0.0221619,
7886,0.00366211,0.0220947,
7888,0.0274658,0.0220337,
7890,-0.0500488,0.0223267,
7892,0.0317383,0.0224854,
7894,0.00366211,0.0224182,
7896,-0.03479,0.0225769,
7898,0.055542,0.0228149,
7900,-0.00976563,0.0227783,
7902,0.0109863,0.0228577,
7904,-0.00427246,0.0228516,
7906,-0.0372314,0.0224121,
7908,0.0219727,0.0225037,
7910,0.00549316,0.0224976,
7912,-0.0378418,0.0226379,
7914,-0.00183105,0.0224121,
7916,-0.00976563,0.0224731,
7918,-0.0256348,0.0226807,
7920,0.0170898,0.0227905,
7922,-0.012207,0.0226746,
7924,-0.010376,0.0226685,
7926,0.0262451,0.0227844,
7928,-0.00793457,0.0227051,
7930,0.00244141,0.0225647,
7932,-0.0140381,0.022467,
7934,-0.022583,0.0223999,
7936,0.0115967,0.0224854,
7938,0.0457764,0.0227173,
7940,-0.0549316,0.0229065,
7942,0.0262451,0.0228577,
7944,0.0115967,0.0229187,
7946,-0.0427246,0.0228882,
7948,0.0469971,0.0228943,
7950,-0.0183105,0.02276,
7952,-0.00915527,0.0228088,
7954,0.0195313,0.0227783,
7956,-0.0561523,0.0227356,
7958,0.00671387,0.022522,
7960,0.00732422,0.0223694,
7962,-0.0250244,0.022583,
7964,0.00488281,0.0221497,
7966,0,0.0220947,
7968,-0.0250244,0.0222534,
7970,0.0311279,0.0223206,
7972,-0.0262451,0.0220581,
7974,-0.0201416,0.0220459,
7976,0.0268555,0.0220642,
7978,-0.00610352,0.0218384,
7980,0.00610352,0.0218384,
7982,-0.0292969,0.0219849,
7984,-0.0219727,0.0221008,
7986,0.0250244,0.0221252,
7988,0.020752,0.022113,
7990,-0.057373,0.0220886,
7992,0.03479,0.0221802,
7994,0.00610352,0.022229,
7996,-0.0396729,0.0222717,
7998,0.0366211,0.0222046,
8000,-0.0274658,0.0223022,
8002,-0.00244141,0.0222412,
8004,0.0244141,0.0222046,
8006,-0.0512695,0.0221008,
8008,0.00732422,0.0219727,
8010,0.00976563,0.0219666,
8012,-0.0238037,0.0218872,
8014,0.0146484,0.0219971,
8016,0.00305176,0.0220276,
8018,-0.0323486,0.0221008,
8020,0.0262451,0.022168,
8022,-0.0128174,0.0221375,
8024,-0.0268555,0.0223083,
8026,0.0238037,0.0222961,
8028,0.00671387,0.022168,
8030,-0.0128174,0.0220398,
8032,-0.0378418,0.0220459,
8034,-0.0012207,0.0218018,
8036,0.0115967,0.0218994,
8038,0.0219727,0.0218445,
8040,-0.0500488,0.0218994,
8042,0.0219727,0.0220276,
8044,-0.00671387,0.0219666,
8046,-0.0317383,0.0219543,
8048,0.0463867,0.022113,
8050,-0.0280762,0.0222595,
8052,-0.00427246,0.0222961,
8054,0.0268555,0.0222107,
8056,-0.0469971,0.0221497,
8058,0.00793457,0.0220459,
8060,0.0115967,0.0220581,
8062,-0.022583,0.0220642,
8064,0.00732422,0.0221008,
8066,0.00244141,0.0220154,
8068,-0.0183105,0.0219482,
8070,0.0292969,0.0220764,
8072,-0.00671387,0.0218506,
8074,-0.0286865,0.0219238,
8076,0.0183105,0.0219177,
8078,-0.00244141,0.021698,
8080,-0.0274658,0.0216614,
8082,0.0378418,0.021875,
8084,-0.0415039,0.0218872,
8086,0.0012207,0.0218628,
8088,0.0372314,0.0219604,
8090,-0.0439453,0.0218994,
8092,0.0286865,0.0218689,
8094,-0.00732422,0.0219055,
8096,-0.0317383,0.021875,
8098,0.0402832,0.0217224,
8100,-0.022583,0.0218506,
8102,-0.00305176,0.0217712,
8104,0.0158691,0.0218872,
8106,-0.0469971,0.0219849,
8108,0.00610352,0.0218262,
8110,0.022583,0.0219971,
8112,-0.0170898,0.0217896,
8114,-0.000610352,0.0217773,
8116,0.00488281,0.0217285,
8118,-0.0360107,0.0218323,
8120,0.020752,0.0218689,
8122,-0.0140381,0.0218872,
8124,-0.0238037,0.0220215,
8126,0.0292969,0.022052,
8128,-0.0305176,0.0222778,
8130,-0.0427246,0.0226807,
8132,0.0305176,0.0228455,
8134,-0.0286865,0.0229065,
8136,-0.00427246,0.0228333,
8138,0.0219727,0.0225952,
8140,-0.0476074,0.022522,
8142,0.0231934,0.0224915,
8144,0.0201416,0.0225769,
8146,-0.043335,0.022583,
8148,-0.0299072,0.0224121,
8150,-0.0158691,0.0223877,
8152,0.0115967,0.0224121,
8154,0.0128174,0.022345,
8156,-0.0598145,0.0223816,
8158,-0.000610352,0.0223206,
8160,0.00793457,0.0223267,
8162,-0.0250244,0.0223267,
8164,0.00427246,0.0223206,
8166,0.020752,0.0225281,
8168,-0.0262451,0.0225403,
8170,0.00671387,0.0222961,
8172,-0.00732422,0.0221069,
8174,-0.0146484,0.022052,
8176,0.0201416,0.0219849,
8178,-0.020752,0.0221313,
8180,-0.0262451,0.0223328,
8182,0.0311279,0.0223511,
8184,-0.0366211,0.0224976,
8186,-0.00854492,0.0223328,
8188,0.0250244,0.0223755,
8190,-0.0512695,0.0223145,
8192,0.0305176,0.0222717,
8194,-0.0109863,0.0223206,
8196,-0.0317383,0.0222412,
8198,0.0354004,0.022229,
8200,-0.0256348,0.0222107,
8202,-0.0146484,0.0223328,
8204,0.020752,0.0222961,
8206,-0.0476074,0.0222595,
8208,-0.000610352,0.0221924,
8210,0.010376,0.0221985,
8212,-0.0280762,0.0222412,
8214,-0.00244141,0.0221191,
8216,0.0109863,0.0221985,
8218,-0.0292969,0.022168,
8220,0.0152588,0.0220581,
8222,-0.00366211,0.0219666,
8224,-0.00976563,0.0217957,
8226,0.0152588,0.0217102,
8228,-0.0170898,0.021814,
8230,-0.0323486,0.0220093,
8232,0.0305176,0.021936,
8234,-0.0402832,0.0223267,
8236,-0.00549316,0.0222656,
8238,0.0183105,0.022229,
8240,-0.0640869,0.0223694,
8242,0.0286865,0.0224365,
8244,0.0012207,0.0223816,
8246,-0.0317383,0.0223816,
8248,0.0256348,0.0221741,
8250,-0.0158691,0.022052,
8252,-0.012207,0.0221313,
8254,0.0195313,0.0220581,
8256,-0.0427246,0.0220154,
8258,0.00549316,0.021991,
8260,0.00793457,0.0219543,
8262,0.00976563,0.0218262,
8264,-0.0469971,0.0222229,
8266,-0.00915527,0.02229,
8268,0.00793457,0.0221863,
8270,0.00610352,0.0219543,
8272,-0.020752,0.0220947,
8274,-0.0286865,0.0220947,
8276,0.0341797,0.0222534,
8278,-0.0128174,0.0223572,
8280,-0.0311279,0.0223938,
8282,0.0341797,0.0223572,
8284,-0.0244141,0.0221863,
8286,0.00732422,0.0222473,
8288,0.020752,0.0220825,
8290,-0.0640869,0.0222839,
8292,0.0250244,0.0222473,
8294,0.00671387,0.0222412,
8296,-0.0531006,0.0224548,
8298,0.032959,0.0223816,
8300,-0.0213623,0.0223694,
8302,-0.0152588,0.0224915,
8304,0.0189209,0.022522,
8306,-0.0500488,0.0225525,
8308,0.00305176,0.022522,
8310,0.0170898,0.022467,
8312,-0.0292969,0.0225891,
8314,-0.00244141,0.0226074,
8316,0.00671387,0.0226257,
8318,-0.0213623,0.0224792,
8320,0.0158691,0.0224304,
8322,0.00183105,0.0223083,
8324,-0.0201416,0.0222717,
8326,0.0372314,0.0223511,
8328,-0.0250244,0.0222961,
8330,-0.0280762,0.0221497,
8332,0.0354004,0.0221985,
8334,-0.0286865,0.0221985,
8336,-0.00244141,0.0221802,
8338,0.0244141,0.0222046,
8340,-0.055542,0.0222839,
8342,0.0219727,0.0222717,
8344,-0.00305176,0.0221008,
8346,-0.0268555,0.021936,
8348,0.0335693,0.0219727,
8350,-0.03479,0.0221619,
8352,-0.0109863,0.0221558,
8354,0.0115967,0.0221436,
8356,-0.0463867,0.0220093,
8358,-0.0012207,0.0220154,
8360,0.0158691,0.0220947,
8362,-0.00244141,0.0218689,
8364,-0.0402832,0.022229,
8366,-0.0177002,0.0221985,
8368,-0.00244141,0.0219604,
8370,0.010376,0.0219971,
8372,-0.020752,0.0221313,
8374,-0.0421143,0.022406,
8376,0.0335693,0.0225403,
8378,-0.0134277,0.022467,
8380,-0.03479,0.0225525,
8382,0.0463867,0.0227051,
8384,-0.0244141,0.022583,
8386,-0.00549316,0.0225525,
8388,0.0177002,0.0224792,
8390,-0.0537109,0.0225037,
8392,0.0292969,0.0224915,
8394,-0.00671387,0.0224487,
8396,-0.0311279,0.0224426,
8398,0.0164795,0.0222534,
8400,-0.0189209,0.0221863,
8402,-0.0128174,0.022168,
8404,0.0238037,0.0221985,
8406,-0.0445557,0.022168,
8408,0.00915527,0.0222534,
8410,0.0286865,0.0224365,
8412,-0.0317383,0.0224731,
8414,-0.012207,0.0225708,
8416,0.022583,0.0226868,
8418,-0.0305176,0.022699,
8420,0.0134277,0.0226807,
8422,0.0012207,0.0226562,
8424,-0.0384521,0.0229431,
8426,0.0268555,0.0230591,
8428,-0.0146484,0.0230347,
8430,-0.0360107,0.0230713,
8432,0.0311279,0.0230774,
8434,-0.0372314,0.0230469,
8436,0.00244141,0.0230164,
8438,0.0280762,0.023114,
8440,-0.0488281,0.0229614,
8442,0.0219727,0.0228943,
8444,-0.000610352,0.0228882,
8446,-0.022583,0.0227966,
8448,0.0268555,0.0228088,
8450,-0.0134277,0.0227844,
8452,-0.0109863,0.0227722,
8454,0.0109863,0.0226868,
8456,-0.0372314,0.0226318,
8458,0.000610352,0.022583,
8460,0.0134277,0.0226379,
8462,-0.0286865,0.0228271,
8464,-0.0128174,0.0224854,
8466,0.0158691,0.0225525,
8468,-0.0292969,0.0227661,
8470,0.00671387,0.0227722,
8472,0.00915527,0.0226562,
8474,-0.0195313,0.0225647,
8476,0.0201416,0.0224243,
8478,-0.0109863,0.022406,
8480,-0.0408936,0.0225037,
8482,0.0378418,0.0225403,
8484,-0.0354004,0.0226501,
8486,-0.00427246,0.0226196,
8488,0.0292969,0.0227051,
8490,-0.0427246,0.0224915,
8492,0.0262451,0.0225037,
8494,0.00610352,0.0224976,
8496,-0.0366211,0.0223328,
8498,0.0305176,0.0223083,
8500,-0.00427246,0.0221375,
8502,-0.0231934,0.0222168,
8504,0.0134277,0.0221619,
8506,-0.0311279,0.0219727,
8508,-0.00366211,0.0219788,
8510,0.0177002,0.0219849,
8512,-0.0292969,0.0219849,
8514,-0.0115967,0.0220764,
8516,0.0146484,0.0221558,
8518,-0.0280762,0.0222229,
8520,0.010376,0.022168,
8522,0.00488281,0.0221985,
8524,-0.0421143,0.0224182,
8526,0.0238037,0.0222839,
8528,-0.00244141,0.0220581,
8530,-0.0378418,0.0221558,
8532,0.0213623,0.0220154,
8534,-0.0213623,0.0219421,
8536,0,0.0219177,
8538,0.0189209,0.0218628,
8540,-0.0561523,0.0218689,
8542,0.0244141,0.0218933,
8544,-0.00915527,0.0219543,
8546,-0.0354004,0.0220398,
8548,0.0183105,0.0218872,
8550,-0.0183105,0.0217224,
8552,-0.0268555,0.0218811,
8554,0.010376,0.0218689,
8556,-0.043335,0.0218384,
8558,-0.00427246,0.0218689,
8560,0.0219727,0.0219299,
8562,-0.0360107,0.0222656,
8564,-0.00427246,0.0219055,
8566,-0.00854492,0.021814,
8568,-0.0183105,0.0219727,
8570,0.00610352,0.0219299,
8572,-0.00305176,0.0217529,
8574,-0.0457764,0.0217896,
8576,0.0323486,0.0217773,
8578,-0.0177002,0.0218201,
8580,-0.0372314,0.0218445,
8582,0.0341797,0.0217224,
8584,-0.0396729,0.021875,
8586,0.0012207,0.0218323,
8588,0.0219727,0.021875,
8590,-0.0592041,0.0219299,
8592,0.0250244,0.0218872,
8594,0.00488281,0.0218689,
8596,-0.0292969,0.0218506,
8598,0.020752,0.0218933,
8600,-0.00976563,0.0218018,
8602,-0.0164795,0.0218384,
8604,0.0183105,0.0217834,
8606,-0.0390625,0.0217285,
8608,-0.0128174,0.0217651,
8610,0.00915527,0.0215698,
8612,-0.0323486,0.0215759,
8614,0.0219727,0.0216736,
8616,-0.0445557,0.0218933,
8618,-0.0140381,0.0217285,
8620,0.0146484,0.0217407,
8622,-0.00610352,0.0217896,
8624,-0.0323486,0.0217285,
8626,0.0189209,0.0216492,
8628,0.000610352,0.0215088,
8630,-0.0537109,0.0216858,
8632,0.032959,0.0217041,
8634,-0.0476074,0.0218079,
8636,0.00915527,0.021875,
8638,0.0146484,0.0217407,
8640,-0.0500488,0.0217529,
8642,0.020752,0.0217407,
8644,0.0170898,0.0219055,
8646,-0.0384521,0.0220642,
8648,0.0427246,0.0222229,
8650,-0.0354004,0.0224426,
8652,0.00915527,0.0224243,
8654,0.0170898,0.0224854,
8656,-0.0524902,0.0226379,
8658,-0.0115967,0.0227478,
8660,0.0140381,0.0227539,
8662,-0.00549316,0.022522,
8664,-0.00854492,0.0224792,
8666,-0.0183105,0.0225037,
8668,-0.00488281,0.0222595,
8670,0.0146484,0.0223389,
8672,-0.012207,0.0223694,
8674,-0.0421143,0.0225952,
8676,0.0280762,0.0226746,
8678,-0.00244141,0.0225891,
8680,-0.0415039,0.0225952,
8682,0.03479,0.0225647,
8684,-0.0201416,0.0224121,
8686,0.00854492,0.0224548,
8688,0.0250244,0.0224121,
8690,-0.0622559,0.0226074,
8692,0.0146484,0.0224915,
8694,0.0158691,0.0225891,
8696,-0.022583,0.0224487,
8698,0.0189209,0.0223328,
8700,-0.0134277,0.0224243,
8702,-0.010376,0.0222961,
8704,0.0238037,0.0223999,
8706,-0.0396729,0.0224854,
8708,-0.00305176,0.0224792,
8710,0.0219727,0.022522,
8712,-0.0183105,0.0224121,
8714,-0.0341797,0.0226379,
8716,0.0189209,0.0226807,
8718,-0.0231934,0.0226318,
8720,-0.00244141,0.0225525,
8722,0.00549316,0.0225586,
8724,-0.0323486,0.0224609,
8726,0.0250244,0.0224731,
8728,-0.00793457,0.0225281,
8730,-0.0396729,0.0225464,
8732,0.0378418,0.0227112,
8734,-0.0231934,0.0227295,
8736,-0.00854492,0.0228149,
8738,0.020752,0.0228333,
8740,-0.0457764,0.0227295,
8742,0.0238037,0.0227234,
8744,0.0177002,0.0228088,
8746,-0.0408936,0.0228638,
8748,0.0219727,0.0229004,
8750,0.0012207,0.0227295,
8752,-0.020752,0.0226685,
8754,0.00854492,0.0226501,
8756,-0.0201416,0.0224182,
8758,-0.00305176,0.022406,
8760,0.00671387,0.0222534,
8762,-0.0268555,0.0221619,
8764,-0.0170898,0.02229,
8766,0.0219727,0.0224243,
8768,-0.0323486,0.0225647,
8770,-0.00183105,0.022522,
8772,0.0195313,0.0226868,
8774,-0.0482178,0.0227112,
