Sara-A-Musc-ABC-L01
Gráfico creado el:2026-06-09 18:38:26.732
Registro en:2026-06-09 18:41:20.069
2 mseg/muestras
2 canales
EMG
mV
EMG Integrado
mV-sec
milliSec,CH1,CH40,
,201848 samples,201848 samples,
0,-0.0390625,0.000390625,
2,0.012207,0.000512695,
4,0.00244141,0.000537109,
6,-0.0378418,0.000915527,
8,-0.0140381,0.00105591,
10,0.0360107,0.00141602,
12,-0.0134277,0.00155029,
14,0.0140381,0.00169067,
16,0.00976563,0.00178833,
18,-0.0305176,0.00209351,
20,0.00610352,0.00215454,
22,0.0213623,0.00236816,
24,-0.0366211,0.00273438,
26,0.0170898,0.00290527,
28,0.0152588,0.00305786,
30,-0.0354004,0.00341187,
32,-0.0268555,0.00368042,
34,-0.00854492,0.00376587,
36,0.045166,0.00421753,
38,-0.0189209,0.00440674,
40,-0.0720215,0.00512695,
42,0.00488281,0.00517578,
44,0.012207,0.00529785,
46,-0.0335693,0.00563354,
48,0,0.00563354,
50,-0.0317383,0.00595093,
52,0.0140381,0.00609131,
54,0.00305176,0.00612183,
56,-0.0311279,0.00643311,
58,-0.0115967,0.00654907,
60,0.012207,0.00667114,
62,0.00854492,0.00675659,
64,-0.0152588,0.00690918,
66,-0.0256348,0.00716553,
68,0.00976563,0.00726318,
70,0.0231934,0.00749512,
72,-0.0177002,0.00767212,
74,-0.0262451,0.00793457,
76,0.0250244,0.00818481,
78,0.0201416,0.00838623,
80,-0.0439453,0.00882568,
82,-0.00549316,0.00888062,
84,-0.0219727,0.00910034,
86,0.020752,0.00930786,
88,0.0134277,0.00944214,
90,-0.0616455,0.0100586,
92,0.0140381,0.010199,
94,0.0476074,0.010675,
96,-0.0476074,0.0111511,
98,0.0140381,0.0112915,
100,-0.0274658,0.0115662,
102,0.0256348,0.0118225,
104,-0.00183105,0.0118408,
106,0.0280762,0.0121216,
108,0.00366211,0.0121582,
110,-0.0366211,0.0125244,
112,0.0238037,0.0127625,
114,0.00305176,0.012793,
116,-0.0299072,0.013092,
118,-0.0146484,0.0132385,
120,-0.00732422,0.0133118,
122,-0.0366211,0.013678,
124,-0.0628662,0.0143066,
126,-0.00488281,0.0143555,
128,0.0134277,0.0144897,
130,-0.0390625,0.0148804,
132,-0.00976563,0.014978,
134,-0.0201416,0.0151794,
136,0.00549316,0.0152344,
138,0.00549316,0.0152893,
140,-0.0445557,0.0157349,
142,0.0115967,0.0158508,
144,-0.00244141,0.0158752,
146,-0.0274658,0.0161499,
148,0.00610352,0.0162109,
150,-0.0256348,0.0164673,
152,0.0195313,0.0166626,
154,0.00427246,0.0167053,
156,-0.0390625,0.0170959,
158,-0.00549316,0.0171509,
160,0.00488281,0.0171997,
162,0.0250244,0.01745,
164,0.0244141,0.0176941,
166,-0.0292969,0.0179871,
168,0,0.0179871,
170,0.0427246,0.0184143,
172,-0.00305176,0.0184448,
174,0.0164795,0.0186096,
176,-0.0231934,0.0188416,
178,0.0354004,0.0191956,
180,-0.0396729,0.0195923,
182,-0.0201416,0.0197937,
184,-0.0305176,0.0200989,
186,0.0238037,0.0203369,
188,-0.020752,0.0205444,
190,-0.067749,0.0212219,
192,0.00427246,0.0212646,
194,-0.00183105,0.021283,
196,-0.0341797,0.0216248,
198,0.00427246,0.0216675,
200,-0.0250244,0.0215271,
202,0.0170898,0.0215759,
204,0.0146484,0.021698,
206,-0.0360107,0.0216797,
208,-0.0115967,0.0216553,
210,0.0164795,0.02146,
212,0.0134277,0.02146,
214,0.00183105,0.0213379,
216,-0.00366211,0.0212769,
218,0.0189209,0.0211609,
220,-0.0109863,0.0212097,
222,0.0195313,0.0211914,
224,-0.0134277,0.0209595,
226,0.0268555,0.0210571,
228,0.0396729,0.0213013,
230,-0.0701904,0.0216492,
232,-0.0170898,0.0215515,
234,0.0128174,0.0215942,
236,-0.00488281,0.0211914,
238,-0.0012207,0.0210144,
240,-0.0579834,0.020874,
242,0.00915527,0.0209167,
244,-0.00610352,0.0208557,
246,-0.0244141,0.0207642,
248,-0.00305176,0.0207947,
250,-0.022583,0.0207031,
252,0.0183105,0.0207458,
254,0.00183105,0.0207336,
256,-0.0140381,0.0205627,
258,-0.0115967,0.0205627,
260,-0.00244141,0.0204651,
262,0.010376,0.0204834,
264,-0.0012207,0.020343,
266,-0.0274658,0.0203613,
268,0.0164795,0.0204285,
270,0.012207,0.0203186,
272,-0.0195313,0.0203369,
274,-0.0170898,0.0202454,
276,0.0457764,0.0204529,
278,0.00183105,0.0202698,
280,0.0195313,0.0200256,
282,-0.0146484,0.0201172,
284,-0.0262451,0.0201599,
286,0.0213623,0.020166,
288,0.0305176,0.0203369,
290,-0.0585938,0.0203064,
292,-0.0201416,0.0203674,
294,-0.00183105,0.0199097,
296,-0.0335693,0.0197693,
298,0.00305176,0.0196594,
300,-0.0500488,0.0198853,
302,0.0140381,0.0197693,
304,-0.00854492,0.0198364,
306,-0.03479,0.0199036,
308,-0.00976563,0.0199646,
310,0.00366211,0.019635,
312,0.00732422,0.0194702,
314,-0.0189209,0.0196289,
316,-0.020752,0.0195374,
318,0.00671387,0.019458,
320,0.00976563,0.0194824,
322,0.00549316,0.0191711,
324,-0.0262451,0.0188049,
326,-0.00915527,0.0188477,
328,0.045166,0.019165,
330,-0.0299072,0.0190735,
332,0.0012207,0.018988,
334,-0.00610352,0.0188477,
336,0.0244141,0.0190369,
338,0.0292969,0.0192749,
340,-0.0543213,0.0193726,
342,0.00366211,0.0192932,
344,0.0244141,0.0195129,
346,-0.012207,0.0193604,
348,0.0152588,0.0194519,
350,-0.0244141,0.0194397,
352,-0.0158691,0.0194031,
354,0.0335693,0.019696,
356,-0.022583,0.0195313,
358,-0.0305176,0.0197815,
360,0.0115967,0.0198486,
362,0.0195313,0.0197937,
364,-0.0189209,0.0197388,
366,-0.0146484,0.0195923,
368,-0.00366211,0.0196289,
370,0.0543213,0.0197449,
372,-0.0250244,0.0199646,
374,-0.0396729,0.0201965,
376,0.0311279,0.0202759,
378,0.0219727,0.0201416,
380,-0.0469971,0.0202148,
382,-0.0189209,0.0202026,
384,-0.020752,0.020105,
386,0.0158691,0.0200256,
388,0.00976563,0.0199158,
390,-0.0323486,0.0195618,
392,0.03479,0.0198669,
394,0.0170898,0.0200195,
396,-0.00610352,0.0197388,
398,0.0219727,0.0199158,
400,-0.0146484,0.019812,
402,0.0238037,0.0198792,
404,0.022583,0.0199585,
406,-0.0524902,0.0201233,
408,-0.0323486,0.0203308,
410,-0.00549316,0.0202209,
412,0.00732422,0.0201599,
414,-0.00183105,0.0201599,
416,-0.0463867,0.0205872,
418,0.00488281,0.0204468,
420,0.00671387,0.0204041,
422,0.000610352,0.0202148,
424,-0.0518799,0.0205994,
426,0.0250244,0.0205811,
428,0.0152588,0.0203369,
430,-0.0604248,0.0202393,
432,-0.0250244,0.0203186,
434,-0.00732422,0.0202637,
436,0.0341797,0.0205566,
438,-0.00915527,0.020636,
440,-0.0335693,0.0203918,
442,-0.0140381,0.0204407,
444,0.0219727,0.0205994,
446,0.00854492,0.0204407,
448,0.0177002,0.0205872,
450,-0.0671387,0.0210327,
452,-0.00427246,0.0208923,
454,0.0286865,0.0211609,
456,-0.0482178,0.0215027,
458,-0.0305176,0.0216919,
460,0.0140381,0.0218079,
462,-0.00915527,0.0217957,
464,-0.00366211,0.0218201,
466,-0.0482178,0.0220276,
468,-0.0152588,0.0220154,
470,0.0152588,0.0220459,
472,0.00793457,0.0219299,
474,-0.0415039,0.0221741,
476,0.010376,0.0218201,
478,0.0244141,0.0220459,
480,-0.0396729,0.0222473,
482,-0.00915527,0.0221924,
484,-0.0134277,0.0220642,
486,0.0439453,0.02229,
488,-0.00305176,0.0220154,
490,-0.0201416,0.0216309,
492,0.0109863,0.0215393,
494,0.00671387,0.0215881,
496,-0.03479,0.0216003,
498,0.0170898,0.0217407,
500,-0.0262451,0.0215027,
502,0.020752,0.0215698,
504,-0.0177002,0.0216614,
506,-0.0219727,0.0215332,
508,-0.0231934,0.0216675,
510,0.00183105,0.0216492,
512,0.0219727,0.0217957,
514,-0.00732422,0.0216797,
516,-0.0445557,0.0219177,
518,0.0012207,0.0218628,
520,0.0177002,0.0219421,
522,0.00549316,0.0219421,
524,-0.0439453,0.0221191,
526,0.00488281,0.0220764,
528,0.0299072,0.0219238,
530,-0.0476074,0.0221008,
532,-0.0164795,0.0222534,
534,-0.0146484,0.0223389,
536,0.0158691,0.0222534,
538,0.010376,0.0220642,
540,-0.0671387,0.0221924,
542,0.0488281,0.022644,
544,0.0299072,0.022699,
546,-0.0506592,0.0230835,
548,0.00915527,0.0230225,
550,0.00366211,0.0228149,
552,0.00976563,0.0227539,
554,0.0201416,0.0226196,
556,-0.0506592,0.0229004,
558,-0.0372314,0.0229675,
560,0.00366211,0.0228882,
562,0.012207,0.0228149,
564,-0.0164795,0.0227905,
566,-0.0256348,0.0229004,
568,-0.012207,0.0229858,
570,0.0115967,0.0225586,
572,-0.000610352,0.0223145,
574,-0.0439453,0.0223572,
576,0.0195313,0.0222412,
578,0.0286865,0.0223083,
580,-0.0335693,0.0221741,
582,0.00366211,0.0220215,
584,0.00976563,0.0219116,
586,0.022583,0.0219788,
588,0.0305176,0.0221863,
590,-0.0372314,0.0222351,
592,-0.0012207,0.0218994,
594,0.00671387,0.0217957,
596,-0.0195313,0.0219299,
598,-0.00610352,0.0217712,
600,-0.0274658,0.0218994,
602,-0.0164795,0.0218262,
604,-0.00793457,0.0216797,
606,-0.0280762,0.0214355,
608,-0.00793457,0.0211914,
610,0.0262451,0.0213989,
612,-0.00244141,0.0213501,
614,-0.00732422,0.021405,
616,-0.0195313,0.0211365,
618,0.00305176,0.0211182,
620,0.0152588,0.0212036,
622,0.00427246,0.0212402,
624,-0.0512695,0.0212341,
626,0.00183105,0.0210022,
628,0.0274658,0.0211243,
630,-0.0183105,0.0207031,
632,-0.03479,0.0208008,
634,-0.0134277,0.0208618,
636,0.0195313,0.0207153,
638,0.00854492,0.0207092,
640,-0.0335693,0.0207092,
642,-0.00366211,0.0206055,
644,0.00854492,0.0204712,
646,-0.0109863,0.0204956,
648,0.0439453,0.0207581,
650,-0.00427246,0.0201294,
652,0.03479,0.0204346,
654,0.0244141,0.0203918,
656,0.010376,0.0200134,
658,-0.0231934,0.0199402,
660,0.0280762,0.0200806,
662,-0.0012207,0.0200012,
664,-0.0292969,0.0202576,
666,-0.0421143,0.0201965,
668,-0.0305176,0.0203491,
670,-0.000610352,0.0202026,
672,0.0531006,0.0206543,
674,0.0439453,0.0206787,
676,0.146484,0.0220398,
678,0.140991,0.0232056,
680,0.0158691,0.0229675,
682,0.0744629,0.0236206,
684,-0.0299072,0.0237854,
686,0.0152588,0.0234985,
688,-0.0354004,0.023822,
690,-0.142822,0.0250488,
692,-0.112915,0.0260681,
694,-0.0830078,0.0268311,
696,-0.0695801,0.027179,
698,0.0134277,0.0271423,
700,0.0372314,0.0272522,
702,0.0384521,0.0274292,
704,0.0592041,0.0278442,
706,0.115356,0.0287781,
708,0.154419,0.0300903,
710,0.200195,0.032074,
712,0.0872803,0.0327271,
714,0.010376,0.0327576,
716,-0.103149,0.0333435,
718,0,0.0333313,
720,-0.0476074,0.0336304,
722,-0.131836,0.0348938,
724,-0.184326,0.0362976,
726,-0.128174,0.0375305,
728,-0.131226,0.0385437,
730,-0.112915,0.0391968,
732,0.0384521,0.0394165,
734,0.0476074,0.0397461,
736,0.172729,0.0413147,
738,0.124512,0.0424561,
740,-0.0512695,0.0422974,
742,0.0634766,0.0424438,
744,0.0012207,0.042157,
746,-0.0598145,0.0422485,
748,-0.0140381,0.0422974,
750,-0.126953,0.0435303,
752,-0.100098,0.0444336,
754,-0.0335693,0.0445679,
756,-0.0256348,0.0443176,
758,0.00732422,0.0440186,
760,-0.0219727,0.0442017,
762,0.0531006,0.0446106,
764,0.115967,0.0456055,
766,0.0500488,0.0458496,
768,0.222778,0.0479553,
770,0.216675,0.0500061,
772,0.0164795,0.0501648,
774,-0.153198,0.0512573,
776,0.0299072,0.0513611,
778,0.0488281,0.0515625,
780,-0.0952148,0.052179,
782,-0.26123,0.0547546,
784,-0.175171,0.0564087,
786,-0.114746,0.0573303,
788,0.0262451,0.0572876,
790,-0.0610352,0.0575256,
792,-0.0231934,0.0577454,
794,-0.020752,0.0578857,
796,0.0598145,0.0582886,
798,0.112305,0.0593506,
800,-0.0299072,0.059375,
802,-0.00793457,0.0592896,
804,-0.0531006,0.0597412,
806,-0.090332,0.0603638,
808,-0.00549316,0.0603394,
810,-0.012207,0.060199,
812,-0.00488281,0.0602234,
814,-0.090332,0.0610535,
816,0.0299072,0.0611572,
818,0.0646973,0.0617737,
820,0.00549316,0.061676,
822,0.0268555,0.0619019,
824,-0.0305176,0.0616943,
826,-0.0299072,0.0619751,
828,0.101929,0.0627197,
830,0.115356,0.0636902,
832,-0.0762939,0.0641052,
834,-0.0811768,0.0647827,
836,0.0842285,0.0654297,
838,-0.136108,0.0667053,
840,0.0500488,0.0668701,
842,0.00305176,0.066864,
844,0.0238037,0.0670166,
846,-0.0720215,0.067627,
848,-0.17395,0.068927,
850,0.0305176,0.0691895,
852,0.0231934,0.0690735,
854,0.00183105,0.0688477,
856,-0.108643,0.0698303,
858,-0.12207,0.0708191,
860,-0.00427246,0.0705811,
862,-0.00488281,0.0706177,
864,0.0512695,0.0708374,
866,0.0598145,0.0710144,
868,0.186768,0.0725769,
870,-0.0732422,0.0733032,
872,-0.0756836,0.0735291,
874,0.10376,0.0741272,
876,0.0317383,0.0729797,
878,0.0244141,0.071814,
880,-0.0488281,0.0721436,
882,-0.0689697,0.0720886,
884,-0.134888,0.0731384,
886,0.0256348,0.0732422,
888,0.0976563,0.0738647,
890,-0.118408,0.0736206,
892,0.140381,0.0738953,
894,0.146484,0.07453,
896,0.255127,0.0763855,
898,-0.0860596,0.0771118,
900,-0.292969,0.0796692,
902,0.227051,0.0815552,
904,0.464478,0.0856079,
906,-0.0830078,0.0852844,
908,-0.327148,0.0870117,
910,-0.0872803,0.0858826,
912,-0.0561523,0.0855713,
914,0.043335,0.0859009,
916,0.155029,0.0864197,
918,0.272217,0.0891418,
920,-0.439453,0.0930603,
922,0.0665283,0.0924072,
924,0.324097,0.0938049,
926,0.725708,0.0997803,
928,-0.187378,0.100342,
930,-0.31189,0.102332,
932,-0.0610352,0.102557,
934,0.293579,0.105017,
936,0.498657,0.108276,
938,-0.944214,0.116473,
940,-0.0921631,0.116882,
942,0.0524902,0.116772,
944,-0.147705,0.118237,
946,-0.0830078,0.118469,
948,0.00549316,0.118384,
950,0.32959,0.12041,
952,0.244751,0.121857,
954,-0.408936,0.12561,
956,-0.0280762,0.125635,
958,0.206909,0.127631,
960,0.0878906,0.12829,
962,-0.167847,0.129437,
964,-0.0250244,0.128528,
966,-0.0384521,0.128412,
968,0.0531006,0.126715,
970,0.0115967,0.124664,
972,0.180054,0.1263,
974,0.174561,0.126514,
976,-0.0231934,0.126447,
978,0.0689697,0.126648,
980,-0.126953,0.126965,
982,-0.103149,0.125385,
984,-0.255127,0.126184,
986,-0.178223,0.126819,
988,-0.0012207,0.126569,
990,0.00549316,0.126013,
992,0.228882,0.12807,
994,-0.0738525,0.128601,
996,0.222778,0.130231,
998,0.345459,0.132562,
1000,0.0390625,0.132654,
1002,0.185547,0.13443,
1004,0.310669,0.137006,
1006,-0.429688,0.140399,
1008,-0.0695801,0.14104,
1010,-0.150146,0.142419,
1012,-0.150757,0.143878,
1014,-0.209961,0.145074,
1016,0.176392,0.146539,
1018,0.450439,0.150397,
1020,-0.03479,0.15069,
1022,0.0958252,0.151379,
1024,-0.217285,0.153247,
1026,0.0872803,0.153821,
1028,0.270996,0.155511,
1030,-0.218506,0.156543,
1032,-0.489502,0.160675,
1034,-0.274048,0.162604,
1036,0.164795,0.163409,
1038,-0.26123,0.164661,
1040,-0.457764,0.168738,
1042,0.289307,0.1716,
1044,0.224609,0.173608,
1046,0.203857,0.174927,
1048,-0.127563,0.174463,
1050,-0.253906,0.176697,
1052,0.251465,0.178979,
1054,-0.167847,0.18064,
1056,0.119629,0.18075,
1058,0.0744629,0.180273,
1060,0.200195,0.182233,
1062,-0.232544,0.184509,
1064,0.0958252,0.184955,
1066,0.0714111,0.185071,
1068,0.0158691,0.183362,
1070,0.153198,0.184161,
1072,0.19043,0.185309,
1074,-0.357666,0.187848,
1076,-0.0708008,0.188239,
1078,0.098877,0.188983,
1080,0.388184,0.192377,
1082,0.651855,0.198206,
1084,-0.0457764,0.197314,
1086,-0.0134277,0.197192,
1088,0.507813,0.201294,
1090,0.272217,0.202832,
1092,-0.331421,0.204742,
1094,-0.13916,0.204669,
1096,-0.0634766,0.202753,
1098,-0.0604248,0.202496,
1100,-0.57312,0.205298,
1102,-0.259399,0.205621,
1104,-0.187988,0.202856,
1106,-0.222168,0.204248,
1108,0.233765,0.203314,
1110,0.254517,0.204987,
1112,0.0592041,0.205017,
1114,0.237427,0.206958,
1116,-0.139771,0.206805,
1118,-0.108032,0.205164,
1120,0.302734,0.203796,
1122,0.194702,0.205078,
1124,0.00854492,0.201923,
1126,-0.228882,0.196954,
1128,0.0982666,0.196063,
1130,0.53772,0.198322,
1132,-0.319214,0.200903,
1134,-0.405273,0.20202,
1136,-0.0140381,0.197174,
1138,0.0866699,0.188599,
1140,-0.278931,0.190466,
1142,-0.216675,0.192108,
1144,-0.0921631,0.191553,
1146,-0.22583,0.192981,
1148,-0.148926,0.194415,
1150,-0.090332,0.192023,
1152,0.0463867,0.190039,
1154,0.00305176,0.18598,
1156,0.0823975,0.186523,
1158,-0.0268555,0.184723,
1160,-0.0976563,0.184821,
1162,0.211182,0.185254,
1164,-0.0848389,0.185852,
1166,-0.133057,0.186798,
1168,0.308228,0.189349,
1170,-0.0891113,0.190125,
1172,-0.0476074,0.1888,
1174,-0.164795,0.188702,
1176,0.10376,0.189508,
1178,0.0256348,0.189075,
1180,0.142822,0.189233,
1182,0.24231,0.190625,
1184,-0.0958252,0.189032,
1186,0.17334,0.188983,
1188,0.0262451,0.189233,
1190,0.0964355,0.190143,
1192,0.122681,0.189081,
1194,-0.324707,0.191589,
1196,-0.150757,0.190869,
1198,0.217285,0.189587,
1200,-0.289307,0.19209,
1202,-0.0646973,0.190881,
1204,-0.0280762,0.188055,
1206,-0.166016,0.185419,
1208,0.0378418,0.185101,
1210,0.00976563,0.183698,
1212,-0.107422,0.183264,
1214,-0.231323,0.183478,
1216,-0.0457764,0.182172,
1218,0.0476074,0.178143,
1220,-0.022583,0.178021,
1222,-0.0415039,0.177478,
1224,-0.0238037,0.175543,
1226,0.145874,0.176129,
1228,-0.00854492,0.173505,
1230,-0.0183105,0.171503,
1232,-0.160522,0.168213,
1234,-0.055542,0.166028,
1236,0.118408,0.165564,
1238,-0.0378418,0.16333,
1240,-0.0939941,0.159692,
1242,-0.0964355,0.157764,
1244,0.0646973,0.156165,
1246,-0.0592041,0.154718,
1248,0.0720215,0.154163,
1250,0.0158691,0.151782,
1252,0.103149,0.150299,
1254,-0.0500488,0.149121,
1256,-0.0360107,0.148285,
1258,0.067749,0.148218,
1260,0.0256348,0.146472,
1262,-0.0714111,0.144861,
1264,0.124512,0.145148,
1266,0.118408,0.145618,
1268,-0.170898,0.147168,
1270,-0.0811768,0.146448,
1272,0.210571,0.146649,
1274,0.100708,0.14408,
1276,0.164185,0.145013,
1278,0.0640869,0.144666,
1280,-0.146484,0.142249,
1282,-0.00854492,0.135815,
1284,0.101929,0.136377,
1286,-0.0213623,0.136456,
1288,-0.0390625,0.131769,
1290,-0.328369,0.13233,
1292,-0.0811768,0.129828,
1294,-0.0708008,0.129144,
1296,-0.182495,0.130334,
1298,-0.022583,0.129956,
1300,-0.0354004,0.124579,
1302,-0.0250244,0.122235,
1304,0.0140381,0.120496,
1306,-0.0787354,0.119061,
1308,-0.0396729,0.11712,
1310,0.0396729,0.114972,
1312,0.0164795,0.114545,
1314,-0.00732422,0.112244,
1316,-0.0256348,0.111102,
1318,0.0244141,0.110266,
1320,0.0769043,0.108008,
1322,0.00732422,0.106134,
1324,-0.043335,0.106482,
1326,0.0396729,0.10459,
1328,0.0250244,0.103857,
1330,-0.0274658,0.0987549,
1332,0.0164795,0.0957275,
1334,0.0646973,0.0923218,
1336,-0.0299072,0.0924805,
1338,0.010376,0.0917175,
1340,0.0134277,0.0890625,
1342,0.0830078,0.0877258,
1344,0.0268555,0.0870728,
1346,-0.00854492,0.0848999,
1348,0.0219727,0.0836304,
1350,0,0.0827271,
1352,0.057373,0.0828369,
1354,0.0500488,0.0833069,
1356,0.0213623,0.0826965,
1358,-0.055542,0.0829834,
1360,-0.0177002,0.0821838,
1362,0.0970459,0.0810425,
1364,0.0311279,0.0805054,
1366,0.00610352,0.0792358,
1368,-0.0390625,0.0765442,
1370,0.0927734,0.0765808,
1372,-0.0384521,0.0764893,
1374,-0.0195313,0.0750366,
1376,0.0384521,0.0743835,
1378,0.0384521,0.0745117,
1380,-0.0189209,0.0732727,
1382,-0.0219727,0.0710693,
1384,0.0640869,0.070752,
1386,0.098877,0.0700073,
1388,0.0311279,0.0700562,
1390,-0.0524902,0.0696167,
1392,0.00366211,0.0684265,
1394,0.0500488,0.0656799,
1396,0.00366211,0.064209,
1398,0.020752,0.0622437,
1400,-0.0286865,0.0596375,
1402,0.0793457,0.0597839,
1404,0.0671387,0.0601746,
1406,0.0500488,0.0590149,
1408,-0.0109863,0.0587463,
1410,0.0286865,0.0589355,
1412,0.0848389,0.0587097,
1414,-0.0250244,0.0566467,
1416,-0.0579834,0.0567688,
1418,-0.0378418,0.0566711,
1420,-0.0201416,0.0566467,
1422,-0.0146484,0.0563782,
1424,-0.0408936,0.0565491,
1426,0.0177002,0.0552673,
1428,0.0585938,0.0557678,
1430,-0.00610352,0.0556458,
1432,0.0152588,0.0541931,
1434,0.0720215,0.0543579,
1436,0.00976563,0.0532715,
1438,0.0268555,0.0531616,
1440,-0.0109863,0.0523315,
1442,0.00793457,0.0514465,
1444,0.043335,0.0512329,
1446,-0.00793457,0.0507202,
1448,-0.00366211,0.0500366,
1450,-0.0238037,0.050116,
1452,0.0372314,0.0494568,
1454,0.0512695,0.049469,
1456,-0.0708008,0.0498169,
1458,0.0311279,0.0494507,
1460,0.0286865,0.0494812,
1462,0.0469971,0.0492371,
1464,-0.0415039,0.048407,
1466,-0.0244141,0.047467,
1468,0.00915527,0.0458496,
1470,0.0671387,0.0457092,
1472,0.00793457,0.0436829,
1474,-0.0750732,0.0434265,
1476,0.022583,0.0420105,
1478,0.0305176,0.0416748,
1480,-0.032959,0.0405396,
1482,0.0390625,0.0408447,
1484,-0.0189209,0.0400146,
1486,-0.0531006,0.040332,
1488,0.0384521,0.0403259,
1490,-0.0506592,0.0375488,
1492,-0.00366211,0.0367737,
1494,0.00915527,0.0361572,
1496,-0.0140381,0.0344727,
1498,-0.012207,0.0343689,
1500,-0.0238037,0.0342529,
1502,0.0744629,0.0347473,
1504,-0.0170898,0.0347778,
1506,-0.045166,0.0344421,
1508,0,0.0340454,
1510,0.0280762,0.0339294,
1512,0.0244141,0.0340088,
1514,-0.0317383,0.0342529,
1516,-0.0189209,0.0341858,
1518,0.0286865,0.0342285,
1520,-0.0146484,0.033606,
1522,0.0445557,0.0339783,
1524,-0.0341797,0.0338867,
1526,0.0744629,0.0342346,
1528,-0.03479,0.0343323,
1530,-0.0616455,0.0346741,
1532,-0.00671387,0.0345764,
1534,0.0457764,0.0343872,
1536,-0.00732422,0.0341614,
1538,-0.0793457,0.0348511,
1540,-0.00976563,0.0348145,
1542,0.0256348,0.0342407,
1544,-0.0372314,0.0343445,
1546,-0.0506592,0.0347656,
1548,0.00366211,0.0345825,
1550,0.0280762,0.0348633,
1552,0.0292969,0.0345825,
1554,-0.0396729,0.0344788,
1556,-0.020752,0.0344727,
1558,0.0250244,0.0341675,
1560,0.0213623,0.0342041,
1562,-0.0378418,0.0336121,
1564,-0.00305176,0.0333313,
1566,0.0689697,0.03396,
1568,-0.140381,0.0349731,
1570,-0.0305176,0.0343506,
1572,-0.032959,0.0342957,
1574,0.020752,0.0343079,
1576,-0.117798,0.0351013,
1578,-0.00793457,0.0347961,
1580,-0.0750732,0.0353577,
1582,-0.045166,0.0355896,
1584,-0.0482178,0.0354309,
1586,0.0231934,0.0346741,
1588,0,0.0343628,
1590,0.0323486,0.0341614,
1592,0.0872803,0.0349976,
1594,0.0115967,0.034613,
1596,-0.0720215,0.0352966,
1598,0.0628662,0.0357178,
1600,-0.0128174,0.0355591,
1602,-0.0311279,0.0350769,
1604,-0.00244141,0.0344299,
1606,-0.0665283,0.0345947,
1608,-0.0708008,0.0351929,
1610,-0.0244141,0.0351501,
1612,0.0280762,0.0345825,
1614,0.0531006,0.0348633,
1616,-0.0372314,0.0346558,
1618,-0.0134277,0.0344116,
1620,0.0366211,0.0345764,
1622,0.0494385,0.0349243,
1624,-0.134888,0.0358643,
1626,0.0738525,0.0364258,
1628,0.00549316,0.0358948,
1630,-0.00671387,0.0359009,
1632,0.00549316,0.0358032,
1634,0.022583,0.0353088,
1636,0.0512695,0.0357239,
1638,-0.00976563,0.035553,
1640,-0.100098,0.0364441,
1642,0.0189209,0.036554,
1644,0.0158691,0.0362793,
1646,-0.0189209,0.0363892,
1648,-0.0726318,0.0370789,
1650,-0.0512695,0.0373535,
1652,0.0390625,0.0373718,
1654,0.0262451,0.0371216,
1656,0.0482178,0.0368958,
1658,-0.0561523,0.037146,
1660,0.0805664,0.0376648,
1662,0.0830078,0.0380249,
1664,-0.105591,0.0386658,
1666,-0.043335,0.038855,
1668,0.0238037,0.0390015,
1670,-0.0158691,0.0384888,
1672,-0.00488281,0.0384583,
1674,-0.117798,0.0388855,
1676,0.0250244,0.0389099,
1678,0.0341797,0.0389465,
1680,-0.00488281,0.0386658,
1682,0.0134277,0.0384094,
1684,-0.0524902,0.0387451,
1686,0.065918,0.0388733,
1688,-0.0738525,0.0392273,
1690,0.000610352,0.0387268,
1692,-0.0469971,0.0391602,
1694,0.0189209,0.0392578,
1696,-0.020752,0.039325,
1698,-0.0457764,0.0396606,
1700,-0.0390625,0.0398132,
1702,0.0274658,0.0393433,
1704,0.078125,0.0399536,
1706,-0.0134277,0.0396362,
1708,-0.0152588,0.0397888,
1710,0.00732422,0.0395813,
1712,-0.0585938,0.0399231,
1714,0.0366211,0.0399719,
1716,-0.0689697,0.0404724,
1718,-0.0146484,0.040332,
1720,-0.0231934,0.0404175,
1722,-0.0170898,0.0401428,
1724,-0.0183105,0.0399841,
1726,0.0506592,0.0397461,
1728,0.0390625,0.0397888,
1730,-0.078125,0.0399536,
1732,-0.00427246,0.0399292,
1734,0.00305176,0.039502,
1736,-0.00732422,0.039502,
1738,0.0531006,0.0392395,
1740,-0.0976563,0.0401184,
1742,-0.0384521,0.0402466,
1744,-0.0213623,0.0400879,
1746,0.032959,0.0399109,
1748,0.0439453,0.0403137,
1750,-0.0482178,0.0405151,
1752,0.0299072,0.0405212,
1754,-0.0628662,0.0407532,
1756,-0.0231934,0.0407776,
1758,-0.032959,0.0408569,
1760,-0.0323486,0.0409668,
1762,-0.0274658,0.040863,
1764,-0.0317383,0.0411499,
1766,-0.0445557,0.0409058,
1768,-0.00366211,0.0395386,
1770,0.0463867,0.0396973,
1772,-0.0109863,0.0394775,
1774,0.0708008,0.039978,
1776,-0.0427246,0.0392273,
1778,-0.0115967,0.0392639,
1780,0.0134277,0.0386475,
1782,-0.0457764,0.0386536,
1784,-0.0726318,0.0388977,
1786,0.0408936,0.0390747,
1788,-0.0366211,0.0394409,
1790,-0.0836182,0.0399536,
1792,0.0561523,0.0396423,
1794,-0.0585938,0.0401123,
1796,0.0244141,0.0396362,
1798,0.0714111,0.0397217,
1800,-0.0439453,0.040033,
1802,-0.0372314,0.040094,
1804,0.00854492,0.040155,
1806,-0.065918,0.0401489,
1808,0.00610352,0.039502,
1810,-0.0256348,0.0395142,
1812,0.045166,0.0396851,
1814,0.0360107,0.0395142,
1816,0.00793457,0.0392212,
1818,0.012207,0.039209,
1820,0.0402832,0.0392456,
1822,-0.0134277,0.0388855,
1824,-0.00671387,0.0376038,
1826,0.0360107,0.0372253,
1828,-0.0836182,0.0380066,
1830,-0.0854492,0.0387939,
1832,-0.00793457,0.0388184,
1834,-0.0592041,0.0391846,
1836,0.0152588,0.0388245,
1838,-0.0408936,0.0391357,
1840,-0.0354004,0.0384888,
1842,0.00549316,0.0383545,
1844,0.0195313,0.0383911,
1846,0.010376,0.0383057,
1848,-0.0177002,0.0377563,
1850,-0.0494385,0.037738,
1852,0.0360107,0.0377075,
1854,-0.00427246,0.0374878,
1856,-0.0213623,0.0372192,
1858,-0.0280762,0.0369385,
1860,0.0543213,0.036676,
1862,-0.0183105,0.0360291,
1864,0.0646973,0.0356201,
1866,0.0250244,0.035437,
1868,-0.0646973,0.0358459,
1870,0.0140381,0.0358276,
1872,0.0354004,0.0361328,
1874,-0.0335693,0.0352905,
1876,-0.00427246,0.035083,
1878,-0.0268555,0.0350098,
1880,-0.0744629,0.0357056,
1882,-0.00732422,0.0356445,
1884,-0.0183105,0.0353027,
1886,0.0201416,0.034845,
1888,0.0305176,0.0344116,
1890,-0.0598145,0.0350037,
1892,-0.0109863,0.0346436,
1894,0.0170898,0.0346252,
1896,-0.0134277,0.034552,
1898,0.0189209,0.0342834,
1900,-0.0732422,0.0346252,
1902,0.0177002,0.0345276,
1904,0.0341797,0.0340881,
1906,-0.0134277,0.0340881,
1908,-0.0396729,0.0343323,
1910,0.0012207,0.0342712,
1912,0.0476074,0.0341614,
1914,0.00305176,0.0338257,
1916,0.0335693,0.0334717,
1918,-0.078125,0.0341064,
1920,-0.0616455,0.034491,
1922,0.0354004,0.0346741,
1924,-0.0640869,0.0351318,
1926,-0.0213623,0.0348389,
1928,-0.0390625,0.0348389,
1930,-0.0787354,0.034845,
1932,0.0494385,0.0352966,
1934,-0.0610352,0.0358765,
1936,0.00915527,0.0358948,
1938,0.0305176,0.0356689,
1940,-0.0299072,0.0349915,
1942,0.0341797,0.0349487,
1944,-0.0177002,0.0349121,
1946,-0.0335693,0.0349182,
1948,0.0537109,0.0350159,
1950,0.0158691,0.0346924,
1952,-0.00549316,0.0344482,
1954,0.00305176,0.0338501,
1956,0.0152588,0.0337708,
1958,-0.0341797,0.033783,
1960,-0.00732422,0.0335327,
1962,0.088501,0.0341431,
1964,-0.00549316,0.0338806,
1966,-0.154419,0.0349792,
1968,0.0268555,0.0352112,
1970,0.0262451,0.0350098,
1972,-0.0134277,0.0350342,
1974,-0.0750732,0.0350769,
1976,-0.00610352,0.0347107,
1978,-0.0256348,0.0348511,
1980,-0.0402832,0.0351196,
1982,0.0134277,0.0347961,
1984,-0.0262451,0.0343323,
1986,0.00793457,0.0340027,
1988,-0.0012207,0.0336487,
1990,-0.0592041,0.0334045,
1992,0.020752,0.0330505,
1994,0.0177002,0.0326416,
1996,-0.0823975,0.0332214,
1998,0.0201416,0.0327087,
2000,-0.0372314,0.0326416,
2002,0.0146484,0.0324158,
2004,0.0927734,0.0332581,
2006,-0.0360107,0.032959,
2008,-0.00244141,0.0329224,
2010,0.00915527,0.0327576,
2012,-0.0189209,0.0324951,
2014,0.0128174,0.0322632,
2016,-0.0244141,0.032428,
2018,0.0250244,0.0325562,
2020,-0.043335,0.0325867,
2022,-0.0915527,0.0333679,
2024,-0.032959,0.0336304,
2026,0.0396729,0.033667,
2028,0.00488281,0.0328796,
2030,-0.0531006,0.0325562,
2032,0.0244141,0.0327209,
2034,-0.0256348,0.0323853,
2036,-0.0256348,0.032489,
2038,0.090332,0.0329834,
2040,-0.0701904,0.0333313,
2042,0.057373,0.0338501,
2044,0.0427246,0.034082,
2046,0.00488281,0.0340271,
2048,-0.0604248,0.0344543,
2050,0.0140381,0.0341003,
2052,-0.0140381,0.0338806,
2054,-0.043335,0.0342712,
2056,-0.0488281,0.0345459,
2058,-0.0579834,0.034845,
2060,-0.00305176,0.0343323,
2062,0.00183105,0.0341675,
2064,-0.0256348,0.0337769,
2066,-0.0488281,0.0340149,
2068,0.012207,0.03349,
2070,0.0482178,0.0338318,
2072,0.00610352,0.0335388,
2074,-0.0378418,0.0335815,
2076,0.0183105,0.0337219,
2078,-0.0183105,0.0336365,
2080,-0.0268555,0.0331604,
2082,0.00854492,0.0331726,
2084,0.0195313,0.0331848,
2086,0.0598145,0.0335815,
2088,-0.0457764,0.0337341,
2090,-0.0842285,0.0339783,
2092,0.0585938,0.0344543,
2094,0.0183105,0.0344666,
2096,-0.0262451,0.0345947,
2098,0.0653076,0.0350586,
2100,-0.067749,0.0350037,
2102,-0.0311279,0.0351379,
2104,0.00305176,0.0348267,
2106,-0.010376,0.0347961,
2108,-0.0384521,0.0347839,
2110,0.0494385,0.0352661,
2112,0.0274658,0.0350647,
2114,-0.0646973,0.0356812,
2116,-0.0524902,0.0358704,
2118,0.0238037,0.0353271,
2120,0.0280762,0.0349915,
2122,-0.00671387,0.0347046,
2124,-0.0280762,0.0343445,
2126,-0.043335,0.0345642,
2128,0.00671387,0.0342407,
2130,-0.00732422,0.0335266,
2132,-0.000610352,0.0330383,
2134,-0.0683594,0.0331116,
2136,0.0231934,0.033252,
2138,0.0256348,0.0332031,
2140,-0.0317383,0.0332214,
2142,-0.0134277,0.0330139,
2144,-0.0109863,0.0329468,
2146,-0.010376,0.0327148,
2148,-0.00732422,0.032251,
2150,-0.00915527,0.0321838,
2152,-0.0256348,0.0323853,
2154,0.0244141,0.0325989,
2156,-0.0158691,0.032605,
2158,-0.045166,0.0327148,
2160,-0.00671387,0.0327087,
2162,0.0268555,0.0320923,
2164,-0.0128174,0.0321655,
2166,-0.0537109,0.0311584,
2168,0.00610352,0.0309509,
2170,-0.00732422,0.0307617,
2172,0.0274658,0.0309021,
2174,-0.0164795,0.0303162,
2176,-0.00610352,0.0303162,
2178,0.0274658,0.0303345,
2180,-0.0250244,0.0301819,
2182,0.0012207,0.0300598,
2184,-0.022583,0.0300232,
2186,-0.0134277,0.0300781,
2188,0.0427246,0.0304932,
2190,-0.0726318,0.0306274,
2192,-0.0457764,0.0308777,
2194,0.0415039,0.0311157,
2196,-0.0250244,0.030542,
2198,-0.0238037,0.0305786,
2200,-0.00976563,0.030304,
2202,-0.0189209,0.0303467,
2204,0.0146484,0.0295654,
2206,-0.0390625,0.0295959,
2208,-0.0256348,0.0298279,
2210,0.0115967,0.0298523,
2212,0.00671387,0.0297302,
2214,-0.0250244,0.0298523,
2216,-0.0396729,0.0300049,
2218,0.0280762,0.0300354,
2220,0.0341797,0.0299438,
2222,-0.0402832,0.0294312,
2224,-0.043335,0.0295349,
2226,0.0762939,0.0299011,
2228,0.0299072,0.0301514,
2230,-0.0585938,0.0302063,
2232,-0.0299072,0.0302612,
2234,0.0354004,0.0303589,
2236,-0.0732422,0.030835,
2238,0.0256348,0.030188,
2240,-0.0317383,0.0298035,
2242,-0.0537109,0.0297668,
2244,-0.0152588,0.0294922,
2246,-0.0244141,0.0296875,
2248,-0.0292969,0.0293762,
2250,-0.0115967,0.0293518,
2252,0.0366211,0.0295776,
2254,0.0280762,0.029425,
2256,-0.0640869,0.0295776,
2258,-0.0170898,0.0291687,
2260,0.0653076,0.0297913,
2262,0.00976563,0.0298706,
2264,-0.0518799,0.0301331,
2266,-0.0317383,0.0299622,
2268,0.012207,0.0299622,
2270,-0.00854492,0.0295654,
2272,-0.00427246,0.0295471,
2274,-0.0469971,0.0296387,
2276,0.0262451,0.029718,
2278,0.000610352,0.029541,
2280,-0.0158691,0.0294312,
2282,-0.00915527,0.0294373,
2284,0.0256348,0.0294983,
2286,0.0341797,0.0292419,
2288,0.0494385,0.0292786,
2290,0.0512695,0.028949,
2292,-0.114746,0.0295105,
2294,0.0579834,0.0299072,
2296,0.0543213,0.030188,
2298,-0.0646973,0.0301819,
2300,-0.0183105,0.0296875,
2302,-0.00549316,0.0294312,
2304,-0.0286865,0.0296875,
2306,-0.0219727,0.0298035,
2308,-0.088501,0.030304,
2310,0.00732422,0.0298828,
2312,0.0231934,0.0298401,
2314,-0.0372314,0.0295654,
2316,-0.0421143,0.0294617,
2318,-0.0140381,0.029364,
2320,-0.00549316,0.0291382,
2322,0.00183105,0.0290894,
2324,-0.0402832,0.0292114,
2326,0.0305176,0.0290833,
2328,0.00976563,0.0291138,
2330,-0.0299072,0.0293396,
2332,0.00549316,0.0293884,
2334,-0.0170898,0.0288757,
2336,0.0390625,0.0290344,
2338,0.0408936,0.029187,
2340,-0.0390625,0.0292603,
2342,0.00366211,0.0291626,
2344,0.0250244,0.029303,
2346,-0.0286865,0.0294861,
2348,0.055542,0.0299683,
2350,-0.0311279,0.030188,
2352,-0.0421143,0.0303528,
2354,-0.020752,0.0303162,
2356,-0.043335,0.0305908,
2358,-0.0445557,0.0305847,
2360,0.00366211,0.0305542,
2362,-0.000610352,0.0302917,
2364,-0.0286865,0.0304504,
2366,-0.032959,0.0302429,
2368,0,0.0301819,
2370,0.0140381,0.030249,
2372,-0.0164795,0.0301392,
2374,-0.0384521,0.0303589,
2376,0.0158691,0.0304565,
2378,0.0549316,0.0307312,
2380,-0.00671387,0.0305481,
2382,0.0195313,0.0307312,
2384,0.055542,0.0310608,
2386,-0.0292969,0.0312195,
2388,-0.00549316,0.0308472,
2390,-0.0158691,0.0302795,
2392,0.00305176,0.0298523,
2394,-0.0317383,0.0297546,
2396,-0.067749,0.0301819,
2398,-0.0463867,0.0304077,
2400,-0.0408936,0.030719,
2402,-0.000610352,0.0305359,
2404,-0.010376,0.0304932,
2406,-0.0341797,0.0304443,
2408,-0.022583,0.0304138,
2410,0.0146484,0.0304443,
2412,0.00915527,0.0304688,
2414,-0.0305176,0.0305237,
2416,-0.0201416,0.0303284,
2418,0.00915527,0.0301392,
2420,0.0292969,0.0300903,
2422,0.00732422,0.0297607,
2424,-0.0537109,0.0298645,
2426,0.0671387,0.0297729,
2428,0.0561523,0.0300354,
2430,-0.0378418,0.0298279,
2432,-0.0463867,0.0299927,
2434,0.0708008,0.0303467,
2436,0.00915527,0.0297058,
2438,0.0268555,0.029718,
2440,-0.132446,0.0307251,
2442,0.0152588,0.0303406,
2444,0.0256348,0.0304443,
2446,-0.0421143,0.0306213,
2448,-0.0311279,0.0306396,
2450,-0.032959,0.0308533,
2452,0.010376,0.0305908,
2454,0.00244141,0.0303345,
2456,-0.0439453,0.0301331,
2458,-0.00488281,0.030011,
2460,0.0305176,0.0296631,
2462,0.0445557,0.030011,
2464,-0.057373,0.0300659,
2466,-0.0292969,0.0300415,
2468,0.0201416,0.0301208,
2470,0.0189209,0.0302246,
2472,0.0140381,0.0303223,
2474,-0.0360107,0.0302124,
2476,0.00671387,0.0300171,
2478,0.043335,0.0304443,
2480,-0.0488281,0.0307739,
2482,-0.00244141,0.0307068,
2484,-0.0201416,0.0306519,
2486,-0.0012207,0.0303223,
2488,0.00915527,0.0299194,
2490,-0.067749,0.0300842,
2492,0.00244141,0.0289612,
2494,0.0244141,0.0286255,
2496,-0.0415039,0.0284973,
2498,-0.000610352,0.0278564,
2500,-0.0463867,0.0281372,
2502,0.0177002,0.0282593,
2504,0.00732422,0.0280457,
2506,-0.0372314,0.0281982,
2508,-0.0482178,0.0277954,
2510,0.0152588,0.0278748,
2512,0.0238037,0.0278809,
2514,-0.00427246,0.0275513,
2516,-0.0360107,0.0274902,
2518,-0.0109863,0.0274597,
2520,0.022583,0.0276306,
2522,0.0164795,0.0277771,
2524,-0.0683594,0.0280579,
2526,0.0152588,0.0279053,
2528,0.0415039,0.0282227,
2530,-0.0592041,0.0285156,
2532,0.00427246,0.0285034,
2534,0.0415039,0.0287476,
2536,0.0012207,0.0283691,
2538,-0.00671387,0.0280273,
2540,0.0463867,0.0281006,
2542,-0.0183105,0.0282471,
2544,-0.0238037,0.0282349,
2546,0.0250244,0.0281982,
2548,0.000610352,0.0276489,
2550,-0.0927734,0.0282654,
2552,-0.0231934,0.0280762,
2554,-0.00793457,0.027948,
2556,-0.0415039,0.0279297,
2558,-0.0469971,0.0279541,
2560,-0.0115967,0.0280334,
2562,0.00488281,0.0280762,
2564,-0.0268555,0.0280579,
2566,-0.0238037,0.0279663,
2568,0.00549316,0.0280212,
2570,0.0140381,0.0280212,
2572,0.010376,0.0279602,
2574,-0.0421143,0.0279968,
2576,0.0201416,0.0280396,
2578,0.0238037,0.0277283,
2580,-0.0421143,0.0280823,
2582,-0.00610352,0.027948,
2584,0.00549316,0.0274475,
2586,0.0219727,0.0273743,
2588,-0.00549316,0.0273743,
2590,-0.0341797,0.0275574,
2592,0.00183105,0.0275452,
2594,0.0769043,0.0279968,
2596,0.0280762,0.0276001,
2598,0.0518799,0.027655,
2600,-0.0799561,0.0280457,
2602,0.00549316,0.0280945,
2604,0.0457764,0.0284485,
2606,-0.0469971,0.0285767,
2608,-0.0701904,0.0290527,
2610,-0.0201416,0.0291077,
2612,-0.0256348,0.0292725,
2614,-0.0500488,0.0294678,
2616,-0.0299072,0.0295654,
2618,-0.0286865,0.0297607,
2620,0.0244141,0.0297119,
2622,-0.000610352,0.0296448,
2624,-0.0238037,0.0293457,
2626,0.00488281,0.0287231,
2628,0.0201416,0.028363,
2630,-0.0488281,0.0284729,
2632,-0.000610352,0.0280151,
2634,-0.0170898,0.027478,
2636,0.020752,0.027594,
2638,-0.00305176,0.027356,
2640,-0.0463867,0.0264954,
2642,0.022583,0.0265686,
2644,0.00610352,0.0263733,
2646,-0.0158691,0.0261108,
2648,0.0939941,0.0267395,
2650,-0.0750732,0.0271606,
2652,0.0463867,0.0275208,
2654,0.0878906,0.0283752,
2656,-0.0665283,0.0286011,
2658,-0.0549316,0.0291016,
2660,0.00488281,0.0288452,
2662,0.00366211,0.0284363,
2664,-0.0610352,0.0284729,
2666,-0.0543213,0.0287231,
2668,-0.045166,0.0289734,
2670,-0.000610352,0.0287903,
2672,0.012207,0.028772,
2674,-0.0469971,0.0288818,
2676,0.0256348,0.029071,
2678,-0.00366211,0.0286743,
2680,-0.0408936,0.028595,
2682,0.0189209,0.0287598,
2684,-0.0305176,0.0288635,
2686,0.00671387,0.0289185,
2688,-0.0158691,0.0289856,
2690,-0.0445557,0.0287537,
2692,0.000610352,0.0287354,
2694,0.0146484,0.0286377,
2696,-0.00305176,0.0282532,
2698,0.0115967,0.028363,
2700,-0.0390625,0.0282898,
2702,0.0250244,0.028363,
2704,0.0238037,0.0285278,
2706,0.0378418,0.0285339,
2708,-0.0354004,0.0284058,
2710,0.0201416,0.0284546,
2712,-0.00549316,0.0282715,
2714,0.00976563,0.0283264,
2716,-0.00549316,0.0280212,
2718,0.00854492,0.0279968,
2720,0.0134277,0.0279053,
2722,-0.043335,0.0281738,
2724,-0.0323486,0.0278137,
2726,-0.010376,0.0277649,
2728,0.0311279,0.0276611,
2730,-0.0177002,0.0272461,
2732,-0.043335,0.0276367,
2734,-0.0427246,0.0276489,
2736,0.0286865,0.0279236,
2738,-0.0317383,0.0281738,
2740,-0.0738525,0.0284485,
2742,0.0128174,0.0283936,
2744,0.00793457,0.0282349,
2746,-0.055542,0.02854,
2748,0.0158691,0.0286926,
2750,-0.0427246,0.0281921,
2752,0.0152588,0.0281128,
2754,0.0012207,0.0280457,
2756,-0.0262451,0.0278931,
2758,-0.0250244,0.0276733,
2760,0.0341797,0.0278992,
2762,0.00244141,0.0278748,
2764,-0.0311279,0.0279175,
2766,0.0109863,0.0277893,
2768,-0.0366211,0.0281006,
2770,0.10498,0.02901,
2772,-0.043335,0.0293396,
2774,-0.0427246,0.0293457,
2776,0.0415039,0.0295593,
2778,0.0164795,0.0294861,
2780,-0.0390625,0.0294556,
2782,-0.0305176,0.0296997,
2784,-0.0305176,0.02995,
2786,-0.00305176,0.0297607,
2788,-0.0152588,0.0298584,
2790,-0.0598145,0.0301147,
2792,0.000610352,0.0301025,
2794,0.0128174,0.0294617,
2796,-0.022583,0.0294067,
2798,0.00366211,0.0289246,
2800,-0.0128174,0.0282532,
2802,0.0469971,0.0286682,
2804,-0.0164795,0.0283752,
2806,-0.00854492,0.0279907,
2808,0.0244141,0.027533,
2810,0.0445557,0.0277771,
2812,-0.0421143,0.0279419,
2814,-0.00671387,0.0275085,
2816,-0.0115967,0.0273254,
2818,0.00244141,0.027063,
2820,-0.0250244,0.0270691,
2822,-0.0360107,0.0274231,
2824,-0.0567627,0.0277527,
2826,-0.00488281,0.0277527,
2828,0.0244141,0.0277954,
2830,-0.0378418,0.0276855,
2832,-0.0341797,0.0280212,
2834,-0.0146484,0.0279968,
2836,0.0335693,0.028125,
2838,-0.00305176,0.028125,
2840,-0.0335693,0.0279968,
2842,0.0427246,0.0281982,
2844,-0.0152588,0.0282898,
2846,0.00671387,0.0281982,
2848,0.0378418,0.0276367,
2850,-0.0128174,0.0270142,
2852,0.0286865,0.0268372,
2854,0.0012207,0.0259705,
2856,-0.0476074,0.0257813,
2858,-0.0439453,0.0256714,
2860,0.0213623,0.0258362,
2862,-0.00488281,0.0258484,
2864,-0.0146484,0.0253845,
2866,-0.0579834,0.0254211,
2868,0.0280762,0.0252502,
2870,-0.0219727,0.0254639,
2872,0.0140381,0.0254822,
2874,-0.0372314,0.0253845,
2876,0.0140381,0.0252686,
2878,0.0170898,0.0254028,
2880,-0.0262451,0.0252563,
2882,0.0170898,0.025238,
2884,-0.0421143,0.025354,
2886,0.0128174,0.025415,
2888,0.00976563,0.025354,
2890,-0.0268555,0.025177,
2892,0.00305176,0.0252014,
2894,-0.0183105,0.025238,
2896,-0.0177002,0.0253845,
2898,0.0299072,0.0255676,
2900,-0.0408936,0.0255859,
2902,0.0201416,0.0255371,
2904,0.00671387,0.0253662,
2906,-0.0244141,0.0252319,
2908,-0.010376,0.0249817,
2910,0.0219727,0.025,
2912,0.00671387,0.0250122,
2914,-0.032959,0.0252441,
2916,-0.0189209,0.0253784,
2918,0.0250244,0.0255432,
2920,-0.020752,0.0256165,
2922,-0.00366211,0.0252197,
2924,-0.0158691,0.0250549,
2926,0.00671387,0.0250183,
2928,0.00610352,0.0247681,
2930,-0.065918,0.0252502,
2932,-0.00366211,0.0248535,
2934,-0.00366211,0.0244629,
2936,0.0256348,0.0244324,
2938,0.0146484,0.0242615,
2940,-0.0958252,0.0244812,
2942,0.0408936,0.024762,
2944,0.0384521,0.0250671,
2946,-0.0299072,0.0248108,
2948,-0.00366211,0.0246887,
2950,-0.0134277,0.0243958,
2952,-0.00671387,0.0243103,
2954,-0.0170898,0.024469,
2956,-0.0476074,0.0246826,
2958,-0.0286865,0.0247192,
2960,-0.00976563,0.0244751,
2962,0.00732422,0.0245239,
2964,-0.0195313,0.024408,
2966,-0.0274658,0.0245728,
2968,-0.0183105,0.0243896,
2970,0.00976563,0.0234375,
2972,0.0183105,0.0231873,
2974,-0.0421143,0.0231812,
2976,0.0201416,0.0229675,
2978,0.0268555,0.0230713,
2980,-0.0488281,0.0231689,
2982,-0.0262451,0.0231262,
2984,0.00671387,0.0228882,
2986,0.0646973,0.0235046,
2988,-0.00244141,0.0233765,
2990,-0.0793457,0.0235718,
2992,0.0463867,0.0240295,
2994,-0.000610352,0.0239075,
2996,0.00671387,0.0237488,
2998,0.00671387,0.0237793,
3000,-0.0164795,0.0238159,
3002,0.0177002,0.0235229,
3004,-0.012207,0.0234802,
3006,-0.032959,0.0237244,
3008,-0.010376,0.023584,
3010,-0.000610352,0.0231445,
3012,0.0189209,0.0229126,
3014,-0.0231934,0.0230774,
3016,-0.0457764,0.0234192,
3018,0.0170898,0.0235657,
3020,0.022583,0.0235413,
3022,0.00854492,0.0232666,
3024,-0.0354004,0.023053,
3026,0.00488281,0.023053,
3028,0.0311279,0.0231201,
3030,-0.0427246,0.0231689,
3032,-0.00305176,0.0228577,
3034,0.00427246,0.0227539,
3036,-0.00244141,0.0224426,
3038,0.022583,0.0226379,
3040,-0.0463867,0.0227661,
3042,0.0518799,0.0228577,
3044,0.0726318,0.0234314,
3046,-0.111694,0.0244812,
3048,0.0238037,0.0243408,
3050,-0.00915527,0.0243042,
3052,-0.0152588,0.0241699,
3054,0.00793457,0.0242371,
3056,-0.0726318,0.0244873,
3058,-0.0604248,0.0246521,
3060,-0.00427246,0.0244812,
3062,0.00305176,0.0244629,
3064,-0.0158691,0.0244751,
3066,-0.0354004,0.0242493,
3068,-0.0128174,0.0240967,
3070,0.0262451,0.0241394,
3072,0.00549316,0.024054,
3074,-0.0518799,0.0242004,
3076,0.0170898,0.024231,
3078,0.020752,0.0242676,
3080,-0.0372314,0.0243774,
3082,0.00244141,0.024231,
3084,0.012207,0.0239319,
3086,0.0408936,0.0242126,
3088,-0.0183105,0.0242981,
3090,-0.0292969,0.0243225,
3092,0.0274658,0.0245667,
3094,0.032959,0.0247131,
3096,0,0.0245361,
3098,0.0183105,0.0244202,
3100,-0.0335693,0.0243469,
3102,-0.043335,0.0245789,
3104,0.0323486,0.0248352,
3106,-0.0457764,0.0250488,
3108,-0.0518799,0.0254639,
3110,-0.0189209,0.0254333,
3112,-0.00854492,0.0254517,
3114,-0.0463867,0.0255859,
3116,-0.0506592,0.0259033,
3118,-0.00305176,0.0256836,
3120,0.012207,0.0255981,
3122,0.010376,0.0256653,
3124,-0.0421143,0.0259277,
3126,0.0128174,0.0259888,
3128,0.0366211,0.0262939,
3130,-0.0311279,0.025946,
3132,-0.0146484,0.0260559,
3134,-0.00793457,0.0260986,
3136,0.0390625,0.0262329,
3138,-0.00793457,0.0261658,
3140,-0.0323486,0.025531,
3142,0.00549316,0.025177,
3144,0.0543213,0.0253357,
3146,-0.0384521,0.0254211,
3148,0.0512695,0.0258972,
3150,-0.0305176,0.0260681,
3152,-0.000610352,0.0260071,
3154,0.0238037,0.0260742,
3156,0.0012207,0.0256104,
3158,-0.0817871,0.0261414,
3160,-0.0158691,0.0262024,
3162,0.0189209,0.0263184,
3164,-0.0366211,0.0264893,
3166,-0.0354004,0.0265686,
3168,-0.0134277,0.0265198,
3170,-0.0262451,0.0266846,
3172,0.0158691,0.0266602,
3174,-0.043335,0.0266724,
3176,0.00793457,0.0265503,
3178,0.0341797,0.0266235,
3180,-0.0317383,0.0264526,
3182,-0.0140381,0.0263306,
3184,-0.020752,0.0264709,
3186,0.0524902,0.0263489,
3188,-0.0390625,0.0267151,
3190,-0.0427246,0.0263489,
3192,0.0195313,0.0260803,
3194,0.0128174,0.0262024,
3196,-0.0134277,0.0262695,
3198,-0.0262451,0.0264648,
3200,-0.0244141,0.0265442,
3202,0.0183105,0.0265503,
3204,0.00488281,0.0264771,
3206,-0.0299072,0.0264465,
3208,-0.0213623,0.0265564,
3210,0.0158691,0.026709,
3212,0.00854492,0.0266052,
3214,-0.0152588,0.0265259,
3216,-0.0146484,0.0262146,
3218,0,0.0260437,
3220,0.0653076,0.0264709,
3222,-0.0170898,0.0265564,
3224,-0.0366211,0.0265686,
3226,0.0598145,0.0271179,
3228,0.0732422,0.0275391,
3230,-0.000610352,0.0271179,
3232,-0.0714111,0.0278015,
3234,-0.0158691,0.0279175,
3236,0.00976563,0.0279907,
3238,0.0250244,0.0280151,
3240,-0.0732422,0.0282837,
3242,-0.0543213,0.0283081,
3244,-0.000610352,0.0275879,
3246,-0.0244141,0.0267151,
3248,-0.0146484,0.0266235,
3250,-0.022583,0.0267578,
3252,0.00976563,0.0267029,
3254,0.00854492,0.026709,
3256,-0.0189209,0.0261719,
3258,-0.0299072,0.0258667,
3260,0.0115967,0.0259399,
3262,0.00732422,0.0259827,
3264,-0.00915527,0.0259155,
3266,-0.0268555,0.0258301,
3268,0.00305176,0.0257324,
3270,0.0115967,0.0255859,
3272,0.00854492,0.0256165,
3274,-0.0396729,0.0254944,
3276,0.022583,0.0255493,
3278,0.0213623,0.0255554,
3280,-0.0384521,0.0255676,
3282,0.012207,0.0256653,
3284,0.0134277,0.0256775,
3286,0.0268555,0.0255371,
3288,0.0769043,0.026123,
3290,-0.0720215,0.0265503,
3292,-0.0115967,0.0263916,
3294,0.0408936,0.0264709,
3296,-0.0140381,0.0266113,
3298,0.0170898,0.0265991,
3300,-0.0457764,0.0267212,
3302,-0.0158691,0.0264465,
3304,0.00366211,0.0261597,
3306,-0.0280762,0.0259827,
3308,-0.0274658,0.0257385,
3310,-0.00854492,0.0256348,
3312,0.0231934,0.0257813,
3314,-0.0292969,0.0256104,
3316,-0.0390625,0.0254944,
3318,-0.012207,0.0255859,
3320,0.0152588,0.0256165,
3322,-0.0012207,0.0255249,
3324,-0.0421143,0.0255249,
3326,0.0152588,0.0255493,
3328,0.020752,0.0253906,
3330,-0.0280762,0.0253601,
3332,-0.0115967,0.0253296,
3334,0.0469971,0.0257202,
3336,-0.00244141,0.025354,
3338,0.00244141,0.0252991,
3340,-0.0579834,0.0255554,
3342,0.0793457,0.0262939,
3344,-0.00793457,0.0258301,
3346,-0.0683594,0.0261292,
3348,-0.0177002,0.0257935,
3350,-0.00427246,0.025531,
3352,0.0177002,0.0257019,
3354,-0.00793457,0.0255432,
3356,-0.0909424,0.0264404,
3358,-0.0299072,0.0259216,
3360,0.0189209,0.0259521,
3362,0.00732422,0.0258362,
3364,-0.0537109,0.0260071,
3366,-0.0396729,0.0260498,
3368,-0.00183105,0.0259338,
3370,0.0164795,0.0258362,
3372,0.00488281,0.0257263,
3374,-0.0469971,0.0257629,
3376,0.0262451,0.025946,
3378,0.0506592,0.0261108,
3380,-0.0109863,0.0259033,
3382,-0.0140381,0.0259033,
3384,-0.0128174,0.025824,
3386,0.0439453,0.0257385,
3388,0.00549316,0.0254028,
3390,-0.0482178,0.0254578,
3392,0.0311279,0.0255737,
3394,-0.0195313,0.0256409,
3396,0.00366211,0.0255432,
3398,-0.0177002,0.0254578,
3400,-0.0292969,0.0255066,
3402,0.00671387,0.0253906,
3404,0.0109863,0.0254517,
3406,-0.0250244,0.0254028,
3408,-0.0317383,0.0255066,
3410,0.00427246,0.0253906,
3412,0.032959,0.0256348,
3414,-0.0231934,0.0257141,
3416,-0.0109863,0.0256775,
3418,0.0177002,0.0258545,
3420,0.00793457,0.0252808,
3422,-0.00549316,0.0251648,
3424,-0.012207,0.0249207,
3426,0.0109863,0.0244324,
3428,0.00976563,0.0237976,
3430,-0.00305176,0.023822,
3432,-0.0366211,0.0234741,
3434,0.00488281,0.0233643,
3436,0.0415039,0.0236816,
3438,0.0311279,0.0237427,
3440,-0.0701904,0.0237122,
3442,-0.0164795,0.0233337,
3444,0.0384521,0.0237122,
3446,0.0506592,0.0239746,
3448,-0.055542,0.0243835,
3450,-0.0463867,0.0246216,
3452,0.00549316,0.0245789,
3454,0.022583,0.0247192,
3456,-0.0146484,0.0246765,
3458,-0.0488281,0.0248657,
3460,-0.00732422,0.024823,
3462,0.0238037,0.0249878,
3464,-0.022583,0.0251221,
3466,-0.0354004,0.0252075,
3468,0.00793457,0.0252563,
3470,0.0146484,0.0252869,
3472,-0.00732422,0.0252747,
3474,-0.0524902,0.0254028,
3476,0.0250244,0.0254272,
3478,0.0274658,0.0254883,
3480,-0.0390625,0.0254944,
3482,-0.0244141,0.0256165,
3484,0.0286865,0.025769,
3486,0.0793457,0.0262939,
3488,-0.0238037,0.0257629,
3490,-0.088501,0.0259277,
3492,0.0610352,0.0264221,
3494,-0.00244141,0.0260376,
3496,0.00549316,0.0259521,
3498,-0.0372314,0.0261536,
3500,-0.0579834,0.0262756,
3502,0.0262451,0.0263794,
3504,-0.00671387,0.0264099,
3506,-0.0292969,0.0264221,
3508,0.00976563,0.0262451,
3510,-0.0115967,0.0262756,
3512,0.0537109,0.0265808,
3514,-0.0390625,0.0266785,
3516,-0.0457764,0.0267456,
3518,0.00976563,0.0267212,
3520,0.00854492,0.0266541,
3522,-0.010376,0.0267456,
3524,-0.0585938,0.0269104,
3526,0.010376,0.0268616,
3528,0.0195313,0.0268494,
3530,-0.0408936,0.0269775,
3532,-0.00671387,0.0269287,
3534,-0.00732422,0.026532,
3536,0.0274658,0.0267822,
3538,0.0128174,0.026886,
3540,-0.0384521,0.0266907,
3542,0.0280762,0.026178,
3544,0.0219727,0.0263184,
3546,-0.0164795,0.0257996,
3548,0.0256348,0.0258789,
3550,-0.00549316,0.0258911,
3552,0.0646973,0.0263611,
3554,0.00854492,0.0263672,
3556,-0.0634766,0.0260925,
3558,-0.00183105,0.0258118,
3560,0.00549316,0.0256775,
3562,0.00305176,0.0256348,
3564,-0.0390625,0.0254883,
3566,-0.0537109,0.0256287,
3568,-0.00610352,0.0256714,
3570,0.045166,0.0259583,
3572,-0.0238037,0.0261475,
3574,-0.0646973,0.0263245,
3576,0.0299072,0.0263611,
3578,0.0280762,0.0261353,
3580,-0.0439453,0.0264648,
3582,-0.0158691,0.0264832,
3584,-0.022583,0.0265808,
3586,0.0164795,0.0263062,
3588,0.00244141,0.0262756,
3590,-0.0500488,0.0262939,
3592,0.00610352,0.0260437,
3594,0.0231934,0.0260803,
3596,0.00854492,0.0261292,
3598,-0.00183105,0.0259705,
3600,-0.0274658,0.0259521,
3602,0.032959,0.0262146,
3604,0.0152588,0.0262573,
3606,-0.0323486,0.0263306,
3608,0.0402832,0.026416,
3610,-0.0213623,0.0265869,
3612,0.0280762,0.0265381,
3614,0.0219727,0.0265259,
3616,-0.0714111,0.0271301,
3618,0.0140381,0.0270935,
3620,0,0.0270142,
3622,0.00976563,0.0270569,
3624,-0.0494385,0.0274292,
3626,0.0164795,0.0274841,
3628,0.00915527,0.027478,
3630,-0.0427246,0.0278748,
3632,0.0274658,0.0277832,
3634,-0.0292969,0.0280273,
3636,0.0354004,0.0279663,
3638,-0.022583,0.0278809,
3640,-0.0628662,0.0278076,
3642,0.00915527,0.0277344,
3644,-0.0140381,0.0274902,
3646,-0.0323486,0.0273071,
3648,0.00732422,0.026825,
3650,-0.0177002,0.0265381,
3652,0.00732422,0.0265564,
3654,-0.0140381,0.0264709,
3656,-0.0195313,0.0265198,
3658,0.00976563,0.0261292,
3660,0.0146484,0.0262024,
3662,0.012207,0.0260864,
3664,-0.0115967,0.0259766,
3666,-0.0238037,0.0258606,
3668,0.00427246,0.025824,
3670,0.0012207,0.0256897,
3672,0.0244141,0.0258606,
3674,-0.00793457,0.025415,
3676,-0.00549316,0.0252197,
3678,-0.00976563,0.0250427,
3680,-0.0372314,0.0250244,
3682,0,0.0247803,
3684,-0.0445557,0.024939,
3686,0.0274658,0.0244202,
3688,-0.00244141,0.0242065,
3690,-0.0518799,0.0238403,
3692,0.0231934,0.0234619,
3694,0.0408936,0.0238464,
3696,-0.0219727,0.0240112,
3698,-0.0231934,0.0238708,
3700,0.012207,0.0234131,
3702,0.0292969,0.0234436,
3704,-0.00854492,0.0234619,
3706,-0.0549316,0.0237183,
3708,-0.00976563,0.0237183,
3710,-0.012207,0.0237244,
3712,-0.000610352,0.0231934,
3714,-0.0158691,0.0229614,
3716,-0.0372314,0.022876,
3718,0.00244141,0.0228027,
3720,0.0140381,0.0228577,
3722,0.00671387,0.022821,
3724,-0.0372314,0.0226074,
3726,0.00610352,0.0225647,
3728,0.0457764,0.0228271,
3730,-0.0280762,0.022699,
3732,0.0195313,0.0228271,
3734,-0.0286865,0.0230408,
3736,0.0170898,0.022937,
3738,0.0152588,0.0229614,
3740,-0.0415039,0.0229919,
3742,0.0384521,0.0230957,
3744,-0.0183105,0.0230591,
3746,-0.0378418,0.0232727,
3748,0.00427246,0.0230591,
3750,-0.0115967,0.0231201,
3752,0.0128174,0.0226013,
3754,-0.0189209,0.0227051,
3756,-0.0256348,0.0223267,
3758,-0.0274658,0.022583,
3760,0.0177002,0.0227051,
3762,0.0189209,0.0228638,
3764,0.00915527,0.0225647,
3766,-0.0616455,0.022644,
3768,0.00427246,0.0226257,
3770,0.0195313,0.0223694,
3772,0.00366211,0.022168,
3774,-0.0567627,0.0220886,
3776,0.00549316,0.0218445,
3778,0.0360107,0.0219238,
3780,-0.0384521,0.0218689,
3782,-0.0482178,0.0221924,
3784,-0.00610352,0.0220276,
3786,0.0592041,0.0224548,
3788,-0.00732422,0.0225037,
3790,-0.0756836,0.02276,
3792,0.00549316,0.0227539,
3794,0.0134277,0.0226562,
3796,-0.0158691,0.0227295,
3798,-0.0244141,0.0229553,
3800,-0.0360107,0.0230408,
3802,0.0170898,0.0228821,
3804,0.010376,0.0228333,
3806,-0.0189209,0.022699,
3808,0.00488281,0.022345,
3810,-0.0286865,0.0224182,
3812,0.0201416,0.0223389,
3814,0,0.0221191,
3816,-0.0372314,0.0217773,
3818,-0.00366211,0.0216736,
3820,0.00305176,0.0217041,
3822,-0.0286865,0.0218933,
3824,-0.0408936,0.0218079,
3826,0.0274658,0.0219177,
3828,0.0140381,0.0219666,
3830,-0.0360107,0.0218994,
3832,0.00244141,0.0216492,
3834,-0.00549316,0.0214111,
3836,0.020752,0.0212646,
3838,0.00610352,0.0210999,
3840,-0.0567627,0.0210388,
3842,0.012207,0.0210693,
3844,0.012207,0.021051,
3846,0.0140381,0.0208679,
3848,0.0177002,0.0209717,
3850,-0.0439453,0.0212341,
3852,-0.00915527,0.0212524,
3854,0.0292969,0.021405,
3856,-0.0396729,0.0216064,
3858,-0.0286865,0.0217957,
3860,-0.0115967,0.0217651,
3862,0.0164795,0.0218079,
3864,-0.0463867,0.0221558,
3866,-0.022583,0.0221436,
3868,0.012207,0.0222229,
3870,0.0201416,0.0224121,
3872,-0.0177002,0.022345,
3874,-0.0305176,0.0225708,
3876,0.0378418,0.0228943,
3878,0.0384521,0.0231812,
3880,-0.0878906,0.0236877,
3882,-0.0280762,0.0239685,
3884,0.00244141,0.0235474,
3886,0.0177002,0.0234497,
3888,0.00976563,0.0235229,
3890,-0.0769043,0.0237732,
3892,-0.000610352,0.0235474,
3894,0.00793457,0.0232178,
3896,-0.0323486,0.0233215,
3898,0.0140381,0.02323,
3900,-0.0341797,0.0234497,
3902,0.020752,0.0233643,
3904,0.0177002,0.0234558,
3906,-0.0390625,0.0232971,
3908,-0.00244141,0.0232239,
3910,0.0299072,0.0234009,
3912,0.0366211,0.023761,
3914,-0.022583,0.0238281,
3916,-0.0158691,0.0236145,
3918,0.0268555,0.0238586,
3920,0.0268555,0.0239868,
3922,-0.00427246,0.0239624,
3924,-0.0537109,0.0241272,
3926,-0.0109863,0.024176,
3928,0.0372314,0.0240906,
3930,-0.0396729,0.0242065,
3932,-0.0317383,0.0243286,
3934,-0.0244141,0.0242859,
3936,0.00488281,0.0241638,
3938,0.0152588,0.0241638,
3940,-0.0415039,0.0241638,
3942,0.00244141,0.0238037,
3944,0.0262451,0.0238831,
3946,-0.0378418,0.0238831,
3948,0.022583,0.0240662,
3950,-0.0250244,0.0242004,
3952,0.0280762,0.024353,
3954,0.00183105,0.0241821,
3956,-0.0286865,0.0242126,
3958,0.012207,0.0240601,
3960,-0.0213623,0.0240967,
3962,0.0695801,0.0246033,
3964,-0.00427246,0.0245544,
3966,-0.0323486,0.0242615,
3968,0.00305176,0.0242493,
3970,0.00305176,0.0240845,
3972,0.0128174,0.024176,
3974,-0.0415039,0.0240234,
3976,0.0244141,0.0242126,
3978,0.032959,0.0241821,
3980,-0.0665283,0.0244629,
3982,-0.010376,0.0240845,
3984,0.00610352,0.0240845,
3986,0.043335,0.0239258,
3988,-0.00305176,0.0238831,
3990,-0.0732422,0.0238586,
3992,0.0012207,0.0238159,
3994,0,0.0236816,
3996,-0.0274658,0.0237976,
3998,0.00549316,0.0236084,
4000,-0.0317383,0.0235657,
4002,0.0231934,0.0236267,
4004,0.0134277,0.0236572,
4006,-0.0158691,0.0236267,
4008,-0.00610352,0.0236389,
4010,0.0164795,0.0235168,
4012,0.0518799,0.0238342,
4014,0.00915527,0.0239258,
4016,-0.0732422,0.0242859,
4018,0.0427246,0.0246765,
4020,0.00427246,0.0246887,
4022,0.00976563,0.0244995,
4024,0.0012207,0.0241028,
4026,-0.0408936,0.0242371,
4028,0.0195313,0.024292,
4030,-0.0494385,0.0244263,
4032,-0.022583,0.0246277,
4034,-0.0195313,0.0247681,
4036,0.0164795,0.0247253,
4038,0.00366211,0.0247009,
4040,-0.0714111,0.0248474,
4042,-0.00732422,0.0247986,
4044,0.00793457,0.0247559,
4046,-0.00427246,0.0246582,
4048,-0.0012207,0.0244934,
4050,-0.032959,0.0243835,
4052,0.0170898,0.0244629,
4054,-0.00183105,0.0241882,
4056,-0.0335693,0.0241272,
4058,0,0.0238403,
4060,0.022583,0.0239502,
4062,0.0274658,0.0240601,
4064,0.0305176,0.0239014,
4066,-0.0195313,0.0238708,
4068,0.00732422,0.023822,
4070,0.0140381,0.023761,
4072,0.0262451,0.0238464,
4074,-0.0201416,0.0237427,
4076,-0.0183105,0.0235474,
4078,0.0158691,0.0233215,
4080,-0.0494385,0.022937,
4082,-0.0201416,0.0228577,
4084,-0.0317383,0.0231506,
4086,0.00976563,0.0230713,
4088,-0.0012207,0.0229858,
4090,-0.0598145,0.0228149,
4092,0.000610352,0.0228149,
4094,0.00671387,0.0228027,
4096,-0.0268555,0.0227478,
4098,0.0201416,0.0228088,
4100,-0.0268555,0.0227356,
4102,0.0189209,0.0227173,
4104,0.00976563,0.0226379,
4106,-0.0292969,0.0225403,
4108,-0.0140381,0.0226562,
4110,0.0146484,0.0225037,
4112,0.022583,0.0223633,
4114,-0.0115967,0.0222534,
4116,-0.0292969,0.0223877,
4118,0.0518799,0.0226379,
4120,0.0286865,0.0226562,
4122,0.00854492,0.022699,
4124,-0.0286865,0.0224487,
4126,0.0219727,0.0225586,
4128,0.0744629,0.0229309,
4130,-0.0537109,0.0230713,
4132,-0.0164795,0.0229187,
4134,0.0445557,0.0231201,
4136,-0.0311279,0.0233826,
4138,-0.0219727,0.0234497,
4140,-0.0457764,0.0234924,
4142,0,0.023468,
4144,0.010376,0.0233093,
4146,-0.0286865,0.0232178,
4148,-0.0299072,0.023291,
4150,-0.0201416,0.0232422,
4152,0.00610352,0.0230225,
4154,0.012207,0.0231262,
4156,-0.0311279,0.0231506,
4158,-0.0195313,0.0232239,
4160,0.00976563,0.0231079,
4162,0.012207,0.0225342,
4164,-0.022583,0.0227173,
4166,-0.0292969,0.0226868,
4168,0.00976563,0.0227539,
4170,0.0115967,0.0228394,
4172,0.00305176,0.0227417,
4174,-0.0323486,0.0226501,
4176,0.0323486,0.0227295,
4178,0.0317383,0.0227173,
4180,-0.0372314,0.0224243,
4182,-0.00610352,0.0223816,
4184,-0.0164795,0.0224854,
4186,0.0567627,0.0226196,
4188,0.00427246,0.0226318,
4190,-0.0286865,0.0221863,
4192,0.00244141,0.0221985,
4194,0.0482178,0.0226807,
4196,-0.0177002,0.022583,
4198,-0.00854492,0.0226135,
4200,-0.045166,0.0227478,
4202,0.0396729,0.0229126,
4204,0.00976563,0.022876,
4206,-0.0628662,0.0233459,
4208,-0.0463867,0.0237488,
4210,0.0201416,0.0237854,
4212,-0.00183105,0.0232849,
4214,-0.0164795,0.0233582,
4216,-0.0390625,0.0230164,
4218,0.00244141,0.0226135,
4220,0.00427246,0.0226135,
4222,0.0164795,0.0226807,
4224,-0.0292969,0.0229614,
4226,-0.00244141,0.0225769,
4228,0.0213623,0.0225952,
4230,-0.0244141,0.022345,
4232,-0.00366211,0.0221558,
4234,-0.00427246,0.0220032,
4236,0.0213623,0.022052,
4238,-0.00915527,0.0221069,
4240,-0.0378418,0.0217712,
4242,0.00793457,0.0217773,
4244,0.022583,0.0219238,
4246,-0.00305176,0.0219116,
4248,0.0384521,0.0222839,
4250,-0.0109863,0.0220642,
4252,0.0115967,0.0220093,
4254,0.0128174,0.0221191,
4256,-0.00671387,0.0218506,
4258,-0.022583,0.0220764,
4260,0.0128174,0.0219788,
4262,0.0250244,0.0219543,
4264,-0.0372314,0.0220215,
4266,-0.0164795,0.021991,
4268,-0.0250244,0.022168,
4270,0.0170898,0.0221985,
4272,0.0177002,0.022113,
4274,-0.0524902,0.0224365,
4276,0.0268555,0.022522,
4278,0.0219727,0.022583,
4280,-0.0506592,0.0225952,
4282,-0.010376,0.0224976,
4284,-0.0128174,0.0223083,
4286,0.0213623,0.0224243,
4288,-0.00366211,0.0224487,
4290,-0.0457764,0.0223083,
4292,0.00183105,0.0223206,
4294,0.0262451,0.0225159,
4296,-0.0146484,0.0223938,
4298,-0.00183105,0.0222107,
4300,-0.012207,0.0220642,
4302,0.020752,0.0220825,
4304,0.00549316,0.0220398,
4306,-0.0213623,0.0219604,
4308,-0.00915527,0.0219116,
4310,0.0012207,0.0217773,
4312,0.0372314,0.0219238,
4314,-0.00976563,0.0219055,
4316,-0.0170898,0.0217834,
4318,0.055542,0.0218201,
4320,-0.00366211,0.0215698,
4322,0.00549316,0.0215393,
4324,-0.0238037,0.0214905,
4326,0.0311279,0.021582,
4328,0.0170898,0.0210083,
4330,-0.0671387,0.0211426,
4332,-0.0128174,0.021106,
4334,-0.00915527,0.020752,
4336,0.0164795,0.0206055,
4338,-0.0164795,0.0205505,
4340,-0.0415039,0.0205078,
4342,0.020752,0.0207153,
4344,-0.00549316,0.0206665,
4346,-0.0134277,0.0205139,
4348,0.0317383,0.0205322,
4350,-0.0177002,0.0205078,
4352,0.00732422,0.02052,
4354,0.010376,0.0205017,
4356,-0.010376,0.0202942,
4358,-0.00671387,0.020166,
4360,-0.0170898,0.0202393,
4362,0.0170898,0.0202881,
4364,-0.00183105,0.0200806,
4366,-0.0311279,0.0200989,
4368,-0.0213623,0.0202148,
4370,0.00183105,0.0201172,
4372,-0.00183105,0.020105,
4374,-0.0445557,0.0202271,
4376,0.0195313,0.0200989,
4378,0.0244141,0.0200256,
4380,-0.032959,0.0199829,
4382,-0.0354004,0.0202759,
4384,0.0256348,0.0203674,
4386,0.0213623,0.0200134,
4388,0.0238037,0.0202087,
4390,-0.045166,0.0203735,
4392,0.0201416,0.0205505,
4394,0.0610352,0.0206787,
4396,-0.00793457,0.0205811,
4398,-0.0244141,0.0207397,
4400,-0.0299072,0.0205872,
4402,0.0366211,0.0205566,
4404,0.0152588,0.0206116,
4406,-0.0628662,0.0206116,
4408,-0.03479,0.0204956,
4410,0.00732422,0.0203674,
4412,0.020752,0.0205566,
4414,-0.0152588,0.0205444,
4416,-0.0305176,0.020459,
4418,0.0280762,0.0207153,
4420,0.0012207,0.0206848,
4422,0.0189209,0.0207092,
4424,-0.0408936,0.0208252,
4426,0.043335,0.0212341,
4428,0.0378418,0.0213989,
4430,-0.0622559,0.0217773,
4432,-0.000610352,0.0217468,
4434,-0.012207,0.0218262,
4436,0.0134277,0.0217468,
4438,-0.00488281,0.0217041,
4440,-0.0616455,0.0219421,
4442,-0.00427246,0.0219055,
4444,0.012207,0.0218018,
4446,-0.0213623,0.0219849,
4448,0.0183105,0.0217834,
4450,-0.0268555,0.0219421,
4452,0.0292969,0.0221191,
4454,0.022583,0.0222168,
4456,-0.0213623,0.0223633,
4458,0.00915527,0.022229,
4460,-0.00305176,0.0221313,
4462,0.00488281,0.0219299,
4464,-0.00915527,0.0216492,
4466,-0.0195313,0.0216797,
4468,-0.0201416,0.0216309,
4470,0.0012207,0.0214722,
4472,0.00549316,0.0213501,
4474,-0.0463867,0.0212891,
4476,0.00915527,0.0211121,
4478,0.012207,0.0210144,
4480,-0.043335,0.0209412,
4482,-0.0177002,0.0210144,
4484,-0.020752,0.0210938,
4486,0.0213623,0.0210938,
4488,0.00915527,0.0211487,
4490,-0.0653076,0.021344,
4492,0.0219727,0.0215454,
4494,0.0311279,0.0215942,
4496,-0.020752,0.0216553,
4498,0.00427246,0.0216797,
4500,-0.0317383,0.021875,
4502,0.0195313,0.0218628,
4504,0.0128174,0.021936,
4506,-0.0213623,0.021936,
4508,-0.0311279,0.0221558,
4510,-0.00732422,0.0222168,
4512,0.043335,0.0222778,
4514,0.00976563,0.0222778,
4516,-0.0524902,0.0226318,
4518,0.0183105,0.0222595,
4520,0.00366211,0.0222595,
4522,-0.0128174,0.0223328,
4524,-0.0360107,0.0224548,
4526,-0.00610352,0.0222046,
4528,0.0213623,0.0222473,
4530,-0.0170898,0.0217468,
4532,-0.0140381,0.021759,
4534,-0.0219727,0.0218872,
4536,0.00915527,0.021814,
4538,0.0317383,0.0219666,
4540,-0.0500488,0.022052,
4542,-0.00671387,0.0219116,
4544,0.0012207,0.0218689,
4546,-0.0189209,0.0219238,
4548,-0.0274658,0.0218811,
4550,-0.0323486,0.0220276,
4552,0,0.0219543,
4554,0.00549316,0.0219055,
4556,-0.0427246,0.022229,
4558,-0.0146484,0.0223083,
4560,0.0115967,0.0222534,
4562,0.0274658,0.0223572,
4564,-0.0213623,0.0225525,
4566,-0.0354004,0.0225952,
4568,0.0189209,0.0225708,
4570,0.0280762,0.0228333,
4572,0.00427246,0.0228577,
4574,-0.065918,0.0230713,
4576,0.032959,0.0232056,
4578,0.03479,0.0233093,
4580,-0.043335,0.0234131,
4582,0.043335,0.0234924,
4584,-0.0579834,0.0238159,
4586,-0.00488281,0.0236511,
4588,0.0360107,0.0237732,
4590,-0.0640869,0.0239624,
4592,0.012207,0.0238831,
4594,-0.0115967,0.0233887,
4596,-0.03479,0.0236572,
4598,0.00671387,0.0234802,
4600,-0.0244141,0.0234253,
4602,0.0506592,0.0235657,
4604,0,0.0234131,
4606,-0.0463867,0.0232483,
4608,0.0012207,0.0229126,
4610,0.0439453,0.0232788,
4612,0.0457764,0.0235291,
4614,-0.0390625,0.0237671,
4616,-0.0482178,0.0239441,
4618,0.0286865,0.0239502,
4620,0.0177002,0.024115,
4622,-0.0195313,0.0241211,
4624,-0.0195313,0.0239075,
4626,0.0152588,0.0236267,
4628,0.0213623,0.0234619,
4630,-0.0469971,0.0233093,
4632,0.012207,0.0234253,
4634,0.012207,0.0234253,
4636,-0.00488281,0.0233398,
4638,0.0115967,0.023407,
4640,-0.022583,0.0230164,
4642,0.00732422,0.0230469,
4644,0.00366211,0.0229614,
4646,-0.0158691,0.0229065,
4648,0.000610352,0.0227295,
4650,-0.00732422,0.0225342,
4652,0.0354004,0.0225952,
4654,0.000610352,0.0223755,
4656,-0.0177002,0.0223389,
4658,-0.0219727,0.022467,
4660,0.0128174,0.0225647,
4662,0.0238037,0.0227539,
4664,-0.0128174,0.0227905,
4666,-0.0372314,0.0229675,
4668,-0.0012207,0.0227783,
4670,0.0146484,0.0229126,
4672,0.0189209,0.0230469,
4674,-0.0488281,0.0230713,
4676,0.0195313,0.023175,
4678,0.0170898,0.0232239,
4680,-0.032959,0.0231201,
4682,-0.00488281,0.0229919,
4684,-0.0183105,0.0229675,
4686,0.0219727,0.0229736,
4688,0.00427246,0.0229248,
4690,-0.0158691,0.0224304,
4692,-0.0250244,0.0224609,
4694,0.0341797,0.0224915,
4696,-0.00427246,0.0223267,
4698,0.0170898,0.0224548,
4700,-0.0274658,0.0224121,
4702,0.0476074,0.0226929,
4704,-0.000610352,0.0225708,
4706,-0.0408936,0.0227661,
4708,-0.0146484,0.0226013,
4710,0.00915527,0.0226196,
4712,0.00854492,0.0222717,
4714,-0.0195313,0.0223694,
4716,-0.0598145,0.0224426,
4718,0.00854492,0.022345,
4720,0.0213623,0.022522,
4722,0.00610352,0.0224548,
4724,-0.0421143,0.0225159,
4726,0.0189209,0.022644,
4728,0.0366211,0.0227966,
4730,-0.0341797,0.0229675,
4732,-0.0152588,0.0229797,
4734,0.0152588,0.0229126,
4736,0.00732422,0.0228943,
4738,0.0115967,0.0226929,
4740,-0.0390625,0.022583,
4742,0.010376,0.0226196,
4744,0.0231934,0.0228394,
4746,0.0189209,0.0228394,
4748,-0.0195313,0.02276,
4750,0.00732422,0.0225098,
4752,0.0390625,0.0229004,
4754,-0.0115967,0.0229614,
4756,-0.0164795,0.022699,
4758,-0.0128174,0.0226807,
4760,0.0183105,0.0227478,
4762,0.00183105,0.0224915,
4764,-0.00976563,0.0223755,
4766,-0.0262451,0.0222839,
4768,0.0152588,0.0222473,
4770,-0.00793457,0.0220459,
4772,0.0189209,0.0221924,
4774,-0.03479,0.0218811,
4776,0.0164795,0.0217163,
4778,0.0109863,0.0214783,
4780,-0.0378418,0.0214233,
4782,0.00610352,0.021051,
4784,-0.0231934,0.0207031,
4786,0.0128174,0.0207825,
4788,0.00244141,0.0204468,
4790,-0.03479,0.0201538,
4792,0.000610352,0.0200378,
4794,0.0164795,0.0200867,
4796,-0.000610352,0.0197449,
4798,0.000610352,0.0196838,
4800,-0.0140381,0.0195801,
4802,0.032959,0.0194031,
4804,-0.0012207,0.0194153,
4806,-0.043335,0.0193848,
4808,-0.0128174,0.0195007,
4810,0.0189209,0.0192505,
4812,0.00671387,0.0188599,
4814,-0.0250244,0.0187195,
4816,-0.0384521,0.0186218,
4818,0.00366211,0.0183716,
4820,0.0244141,0.0184387,
4822,0.00732422,0.0183167,
4824,-0.0463867,0.0185852,
4826,0.0701904,0.0191345,
4828,0.0250244,0.0191711,
4830,-0.0610352,0.0193115,
4832,0.0219727,0.0194092,
4834,0.022583,0.0195129,
4836,-0.00366211,0.0195007,
4838,-0.000610352,0.0193909,
4840,-0.0579834,0.0197449,
4842,0.00427246,0.0197144,
4844,0.00671387,0.0197449,
4846,-0.0439453,0.0200256,
4848,-0.0152588,0.0201721,
4850,-0.0201416,0.0203003,
4852,0.0268555,0.0202148,
4854,0.0183105,0.0203918,
4856,-0.0408936,0.0206238,
4858,-0.0292969,0.020697,
4860,0.0335693,0.0209045,
4862,0.0183105,0.0208496,
4864,-0.0238037,0.0209595,
4866,-0.0341797,0.020929,
4868,0.00427246,0.0209595,
4870,0.00915527,0.0209045,
4872,0.00732422,0.0207886,
4874,-0.0341797,0.0206421,
4876,0.0244141,0.0206909,
4878,0.0274658,0.0207947,
4880,-0.0445557,0.0209106,
4882,-0.000610352,0.0208679,
4884,-0.000610352,0.0206909,
4886,0.0317383,0.0207886,
4888,0.0201416,0.0209473,
4890,-0.0109863,0.0208984,
4892,-0.0183105,0.0208313,
4894,0.0231934,0.0207214,
4896,0.0109863,0.0207886,
4898,0.0195313,0.020813,
4900,-0.0299072,0.0208374,
4902,0.010376,0.0204651,
4904,0.00488281,0.0205078,
4906,-0.0311279,0.0204102,
4908,-0.0195313,0.020459,
4910,0.00732422,0.0204407,
4912,0.0146484,0.0205017,
4914,-0.0115967,0.0204224,
4916,-0.0415039,0.0202393,
4918,0.0195313,0.0203491,
4920,0.0183105,0.0203186,
4922,0.00244141,0.020282,
4924,0.0628662,0.0204895,
4926,0.0213623,0.0205139,
4928,-0.0231934,0.0203796,
4930,-0.0292969,0.0203308,
4932,0.0146484,0.0203247,
4934,-0.000610352,0.0201782,
4936,-0.00915527,0.0201965,
4938,-0.0280762,0.0203613,
4940,-0.0738525,0.0207092,
4942,0,0.0206055,
4944,0.0128174,0.0205017,
4946,-0.0128174,0.0204407,
4948,0.00793457,0.0203247,
4950,-0.00427246,0.0202942,
4952,0.0146484,0.02005,
4954,0.0128174,0.0200623,
4956,-0.0244141,0.0201416,
4958,0,0.0200134,
4960,0.0140381,0.0199707,
4962,0.0158691,0.0201111,
4964,-0.0115967,0.0201294,
4966,-0.0183105,0.02005,
4968,0.0250244,0.0201477,
4970,0.0390625,0.020459,
4972,0.0830078,0.0210999,
4974,-0.0921631,0.0216736,
4976,0.00976563,0.0216064,
4978,0.057373,0.0220703,
4980,-0.0286865,0.0219788,
4982,-0.0128174,0.0220459,
4984,-0.020752,0.0220215,
4986,-0.012207,0.0220154,
4988,-0.00610352,0.022052,
4990,-0.0543213,0.0222473,
4992,0.00732422,0.0223145,
4994,0.0115967,0.0222656,
4996,-0.000610352,0.0222656,
4998,0.010376,0.0223633,
5000,-0.0311279,0.0225342,
5002,0.0238037,0.0224426,
5004,0.020752,0.0226379,
5006,-0.0280762,0.0224854,
5008,-0.0195313,0.0225525,
5010,0.020752,0.0225708,
5012,0.0280762,0.0227844,
5014,-0.0164795,0.022699,
5016,-0.0268555,0.022583,
5018,0.0830078,0.0233765,
5020,0.0189209,0.0233215,
5022,-0.0140381,0.0233887,
5024,-0.000610352,0.0229309,
5026,0.0372314,0.0226013,
5028,0.0299072,0.0226501,
5030,-0.0299072,0.0223389,
5032,-0.0439453,0.0225586,
5034,-0.0115967,0.0224487,
5036,0.0134277,0.0225464,
5038,-0.00366211,0.0225769,
5040,-0.045166,0.0224487,
5042,0.00671387,0.0224731,
5044,0.0256348,0.0226624,
5046,0.012207,0.022345,
5048,-0.0152588,0.022345,
5050,-0.0109863,0.0222534,
5052,0.0366211,0.0223511,
5054,0.0268555,0.0224365,
5056,-0.0238037,0.0222656,
5058,-0.0195313,0.022168,
5060,0.0158691,0.021991,
5062,0.0268555,0.0220764,
5064,0.0158691,0.0219971,
5066,0.00488281,0.0217041,
5068,-0.0219727,0.0218811,
5070,0.0469971,0.0222595,
5072,0.0170898,0.0223572,
5074,-0.0311279,0.0223267,
5076,0.0158691,0.0222412,
5078,0.00793457,0.0220459,
5080,-0.0170898,0.0217712,
5082,0.0134277,0.0218994,
5084,-0.0286865,0.0221802,
5086,0.0164795,0.0220276,
5088,0.00488281,0.021875,
5090,-0.0231934,0.0219971,
5092,0.0115967,0.0219299,
5094,0.00915527,0.0217896,
5096,-0.0341797,0.0220215,
5098,0.0213623,0.0220398,
5100,-0.0238037,0.0219788,
5102,0.0299072,0.0221741,
5104,0.00793457,0.0222046,
5106,-0.0268555,0.0221619,
5108,0.000610352,0.0219727,
5110,0.0201416,0.0221008,
5112,0.0274658,0.022229,
5114,0.0213623,0.0223267,
5116,-0.00488281,0.0219604,
5118,-0.0183105,0.0219482,
5120,0.0292969,0.0220581,
5122,0.0170898,0.0222046,
5124,-0.0427246,0.0220032,
5126,0.0201416,0.021991,
5128,0.0317383,0.0220764,
5130,-0.0463867,0.0222473,
5132,-0.0164795,0.0222656,
5134,-0.000610352,0.0222656,
5136,0.0366211,0.0225403,
5138,0.00793457,0.0223389,
5140,-0.0445557,0.0220459,
5142,0.0170898,0.0222168,
5144,0.0189209,0.0222778,
5146,-0.010376,0.0222534,
5148,0.0164795,0.0223389,
5150,-0.0189209,0.0224854,
5152,0.0494385,0.0228333,
5154,0.00366211,0.0227417,
5156,-0.0231934,0.0227295,
5158,0.000610352,0.0227356,
5160,0.0268555,0.0228638,
5162,0.0256348,0.0229614,
5164,0.00610352,0.0229065,
5166,-0.0408936,0.0231323,
5168,0.00793457,0.0229614,
5170,0.0299072,0.0228699,
5172,-0.00183105,0.0220581,
5174,-0.0366211,0.0215027,
5176,0.0195313,0.0216003,
5178,0.0372314,0.0213989,
5180,-0.0610352,0.0217224,
5182,0.010376,0.021698,
5184,0.0115967,0.0216064,
5186,0.0115967,0.0216003,
5188,0.0268555,0.0218079,
5190,-0.0512695,0.0217773,
5192,0.0158691,0.0218628,
5194,0.065918,0.022406,
5196,-0.0299072,0.022699,
5198,-0.00244141,0.0226196,
5200,0.0115967,0.0224243,
5202,0.0439453,0.0226257,
5204,-0.032959,0.0227478,
5206,-0.0219727,0.0226868,
5208,0.0115967,0.0226074,
5210,0.000610352,0.022406,
5212,-0.000610352,0.0221313,
5214,-0.0152588,0.0221191,
5216,-0.0244141,0.0220947,
5218,0.00183105,0.021283,
5220,0.012207,0.0212158,
5222,-0.00427246,0.0211182,
5224,-0.0286865,0.0213989,
5226,0.0244141,0.0212708,
5228,0.0262451,0.0212341,
5230,-0.0335693,0.0212708,
5232,-0.00549316,0.0208862,
5234,0.00976563,0.0208679,
5236,0.0463867,0.0211975,
5238,0.00488281,0.0212097,
5240,-0.0408936,0.021167,
5242,0.0152588,0.0212524,
5244,0.0549316,0.0215454,
5246,-0.00793457,0.0215027,
5248,0.0146484,0.0214966,
5250,0.078125,0.022168,
5252,-0.00549316,0.0218567,
5254,-0.0201416,0.0217896,
5256,0.00732422,0.0216248,
5258,-0.0012207,0.0214417,
5260,0.0268555,0.0215515,
5262,-0.00610352,0.021344,
5264,-0.0402832,0.0215881,
5266,-0.0299072,0.0218384,
5268,0.00854492,0.0217041,
5270,0.0567627,0.0218018,
5272,-0.0146484,0.0217773,
5274,-0.0323486,0.0217896,
5276,0.0372314,0.0220032,
5278,0.0238037,0.0221619,
5280,-0.0195313,0.0221863,
5282,-0.00732422,0.0221252,
5284,-0.012207,0.0219604,
5286,0.0390625,0.0221863,
5288,0.0128174,0.0222656,
5290,-0.0439453,0.0224731,
5292,0.0256348,0.0226135,
5294,0.020752,0.0227295,
5296,-0.00366211,0.0224243,
5298,0.0128174,0.0223389,
5300,-0.0262451,0.0223633,
5302,0.032959,0.0223938,
5304,0.0201416,0.0225159,
5306,-0.0335693,0.022583,
5308,-0.00610352,0.0226379,
5310,0.0390625,0.0228271,
5312,0.03479,0.0229004,
5314,-0.0195313,0.0228821,
5316,-0.020752,0.0230408,
5318,0.0238037,0.0230957,
5320,0.020752,0.0230103,
5322,0.00488281,0.0228882,
5324,-0.0268555,0.0227295,
5326,0.0115967,0.022644,
5328,0.0262451,0.0225891,
5330,-0.0518799,0.022644,
5332,-0.000610352,0.0224854,
5334,-0.00427246,0.022522,
5336,0.0250244,0.022406,
5338,0.0140381,0.022467,
5340,-0.045166,0.0224731,
5342,0.0177002,0.0224792,
5344,0.0592041,0.0228821,
5346,0.0299072,0.0230774,
5348,0.0408936,0.0233215,
5350,-0.0134277,0.0232666,
5352,0.010376,0.022876,
5354,0.0427246,0.0232666,
5356,-0.0262451,0.0232971,
5358,-0.00427246,0.0233337,
5360,-0.0311279,0.0233765,
5362,-0.00610352,0.0231812,
5364,-0.0396729,0.0235168,
5366,-0.0390625,0.0234985,
5368,-0.0109863,0.0235291,
5370,0.00793457,0.0233093,
5372,0.00732422,0.0233643,
5374,-0.0366211,0.0233643,
5376,0.0170898,0.0233398,
5378,0.0201416,0.0231689,
5380,-0.0299072,0.0228577,
5382,-0.0140381,0.0228943,
5384,-0.00610352,0.0228394,
5386,0.0305176,0.0230286,
5388,0.0115967,0.022876,
5390,-0.0543213,0.0229065,
5392,0.0158691,0.0229065,
5394,0.0469971,0.0227173,
5396,0.00366211,0.0224548,
5398,0.0238037,0.0226685,
5400,-0.0366211,0.0229187,
5402,0.0341797,0.022821,
5404,0.0524902,0.0230164,
5406,0.00732422,0.0228699,
5408,-0.03479,0.0231018,
5410,-0.0012207,0.0231079,
5412,0.0402832,0.0235046,
5414,-0.0280762,0.0236328,
5416,-0.0152588,0.0235413,
5418,-0.00610352,0.023584,
5420,0.00488281,0.0235107,
5422,-0.00549316,0.0235229,
5424,-0.0488281,0.0237244,
5426,0.0170898,0.0236511,
5428,0.0390625,0.0237793,
5430,0.0341797,0.0237854,
5432,0.0238037,0.0239685,
5434,-0.0549316,0.0244202,
5436,0.0378418,0.0243347,
5438,0.0665283,0.0249512,
5440,-0.067749,0.0252197,
5442,-0.00488281,0.025116,
5444,0.00732422,0.0246399,
5446,-0.0408936,0.0249695,
5448,0.000610352,0.0248291,
5450,-0.043335,0.0244812,
5452,0.0170898,0.0245972,
5454,0.00854492,0.0244812,
5456,-0.0195313,0.0246033,
5458,-0.0152588,0.0247437,
5460,0.00610352,0.0245361,
5462,0.0292969,0.0247681,
5464,-0.0274658,0.0246399,
5466,-0.0177002,0.0245178,
5468,0.0286865,0.0247192,
5470,0.0372314,0.0245239,
5472,-0.0183105,0.0245605,
5474,-0.0384521,0.0246216,
5476,0.0421143,0.0246704,
5478,0.0177002,0.0246094,
5480,-0.0421143,0.0248352,
5482,-0.00305176,0.0247925,
5484,-0.0256348,0.0249268,
5486,0.0189209,0.0247253,
5488,0.0158691,0.0247559,
5490,-0.0262451,0.0245789,
5492,0.0170898,0.0244934,
5494,0.0445557,0.0247314,
5496,-0.0323486,0.0250183,
5498,0.0292969,0.0251831,
5500,-0.00610352,0.0249817,
5502,0.00610352,0.0247131,
5504,0.0152588,0.0246643,
5506,-0.0360107,0.0246887,
5508,-0.0299072,0.0249268,
5510,0.0213623,0.0247498,
5512,0.0140381,0.0245422,
5514,-0.00366211,0.0243835,
5516,-0.0189209,0.0243652,
5518,0.0219727,0.0243469,
5520,0.00915527,0.024231,
5522,0.0134277,0.0243164,
5524,-0.0140381,0.0241882,
5526,0.0152588,0.0242249,
5528,0.0445557,0.024408,
5530,-0.0457764,0.0243469,
5532,-0.0360107,0.0247009,
5534,0.00366211,0.0246948,
5536,0.0476074,0.0249207,
5538,-0.0134277,0.0249146,
5540,-0.0256348,0.0247192,
5542,0.00915527,0.0246338,
5544,-0.00427246,0.0240845,
5546,0,0.0237854,
5548,0.0305176,0.0236816,
5550,-0.0170898,0.0237183,
5552,-0.000610352,0.0236206,
5554,0.0427246,0.0236206,
5556,-0.0524902,0.0238831,
5558,-0.00244141,0.0238647,
5560,0.045166,0.0240051,
5562,-0.00183105,0.0239624,
5564,0.0109863,0.0236755,
5566,-0.0335693,0.0236206,
5568,0.00915527,0.0236023,
5570,0.00976563,0.0236206,
5572,0.0152588,0.0237,
5574,-0.0500488,0.0238342,
5576,0.022583,0.0238892,
5578,0.0335693,0.0240234,
5580,-0.0390625,0.024115,
5582,0.0115967,0.0240906,
5584,-0.020752,0.0242371,
5586,0.0152588,0.0240845,
5588,0.0292969,0.0242615,
5590,-0.0512695,0.024231,
5592,0.0146484,0.0242188,
5594,0.0177002,0.0239258,
5596,0.00915527,0.0239807,
5598,0,0.0237427,
5600,-0.0292969,0.0236694,
5602,0.0439453,0.0237671,
5604,0.00549316,0.0232971,
5606,0.00183105,0.0232422,
5608,-0.0201416,0.0230957,
5610,-0.00671387,0.0231506,
5612,0.0238037,0.0229858,
5614,-0.00549316,0.02276,
5616,-0.0164795,0.0227722,
5618,0.0244141,0.0229553,
5620,-0.0238037,0.0231445,
5622,0.0292969,0.0233826,
5624,-0.022583,0.0231201,
5626,0.0213623,0.0231628,
5628,0.0311279,0.0230835,
5630,-0.0463867,0.0232056,
5632,-0.0219727,0.0231873,
5634,0.00305176,0.0226685,
5636,0.0305176,0.0225952,
5638,0.0158691,0.0220886,
5640,-0.0543213,0.0219543,
5642,-0.00244141,0.0219299,
5644,0.0250244,0.0221069,
5646,-0.000610352,0.0217041,
5648,-0.0012207,0.0217102,
5650,-0.00244141,0.0213013,
5652,0.022583,0.0213562,
5654,0.0140381,0.0214111,
5656,-0.0421143,0.021637,
5658,0.0164795,0.0216492,
5660,0.0274658,0.0218628,
5662,-0.0152588,0.0217224,
5664,-0.020752,0.0216553,
5666,-0.00427246,0.021521,
5668,-0.0189209,0.0214233,
5670,0.0439453,0.0214905,
5672,-0.0128174,0.0214355,
5674,-0.03479,0.0213989,
5676,0.0592041,0.0215698,
5678,0.0415039,0.0218079,
5680,-0.0543213,0.0219299,
5682,-0.0238037,0.0221375,
5684,0.00366211,0.0219177,
5686,0.0299072,0.0220276,
5688,-0.00244141,0.0218933,
5690,-0.065918,0.02229,
5692,-0.00671387,0.0221863,
5694,0.0140381,0.0218811,
5696,-0.0177002,0.0217346,
5698,0.0256348,0.021698,
5700,-0.0164795,0.0218018,
5702,0.043335,0.0221741,
5704,0.00244141,0.0220459,
5706,-0.0415039,0.0221008,
5708,0,0.0218018,
5710,0.0134277,0.0217224,
5712,0.010376,0.0216858,
5714,-0.00244141,0.0216736,
5716,-0.032959,0.021814,
5718,0.00244141,0.0216187,
5720,0.0238037,0.0217651,
5722,0.0146484,0.0217773,
5724,-0.0616455,0.0222534,
5726,0.0341797,0.0224426,
5728,0.0378418,0.0223755,
5730,-0.0366211,0.0222839,
5732,-0.0146484,0.0220703,
5734,-0.012207,0.0221558,
5736,0.0811768,0.0224915,
5738,0,0.0223572,
5740,-0.0689697,0.0227905,
5742,0.0195313,0.0228943,
5744,0.0311279,0.0231628,
5746,-0.0311279,0.0234741,
5748,0.00488281,0.0232178,
5750,-0.043335,0.0234802,
5752,0.00793457,0.0235535,
5754,0.0128174,0.0232544,
5756,-0.0195313,0.0229248,
5758,-0.00183105,0.0229187,
5760,0.0213623,0.0226807,
5762,0.00976563,0.02276,
5764,-0.0109863,0.02276,
5766,0.010376,0.0225281,
5768,0.020752,0.022644,
5770,0.0268555,0.0228149,
5772,0.0140381,0.0228027,
5774,-0.022583,0.0225281,
5776,0.0219727,0.022522,
5778,0.0421143,0.0226074,
5780,-0.0250244,0.022467,
5782,0.000610352,0.0223572,
5784,-0.020752,0.0223572,
5786,0.0274658,0.0224792,
5788,0.0506592,0.0226929,
5790,-0.0799561,0.0229797,
5792,0.00488281,0.0228821,
5794,0.0323486,0.0230286,
5796,-0.00793457,0.0230164,
5798,0.00427246,0.0230591,
5800,-0.0164795,0.0229309,
5802,0.0146484,0.0226379,
5804,-0.00732422,0.0226562,
5806,-0.00976563,0.0227356,
5808,0.0128174,0.0226624,
5810,-0.00244141,0.0226196,
5812,0.0134277,0.0225159,
5814,-0.0183105,0.022644,
5816,-0.0128174,0.0226074,
5818,-0.00183105,0.0223816,
5820,0.00427246,0.0221863,
5822,-0.00671387,0.0219604,
5824,-0.0335693,0.0220703,
5826,0.00244141,0.0218811,
5828,0.0360107,0.0219299,
5830,-0.0439453,0.0219055,
5832,-0.0152588,0.0218384,
5834,0.00671387,0.021875,
5836,0.0286865,0.0218567,
5838,-0.00427246,0.0217407,
5840,-0.0457764,0.0216553,
5842,0.0250244,0.0218811,
5844,0.0415039,0.0220459,
5846,-0.0335693,0.0223755,
5848,0.0152588,0.0225159,
5850,0.0012207,0.0225037,
5852,0.0482178,0.02276,
5854,0.00976563,0.0227173,
5856,-0.0604248,0.0229004,
5858,-0.00183105,0.0227539,
5860,0.0231934,0.0227112,
5862,-0.00305176,0.0225891,
5864,-0.00549316,0.0224365,
5866,-0.0195313,0.0225891,
5868,0.0170898,0.0225708,
5870,0.0335693,0.022467,
5872,-0.0109863,0.0224487,
5874,0.00610352,0.0221619,
5876,0.012207,0.0216919,
5878,0.0262451,0.0215393,
5880,-0.0378418,0.0213745,
5882,-0.00183105,0.0211548,
5884,-0.022583,0.021344,
5886,0.00366211,0.0210815,
5888,0.00183105,0.0210754,
5890,-0.0164795,0.0205811,
5892,0.0195313,0.0207092,
5894,-0.0146484,0.0207153,
5896,-0.0219727,0.0207581,
5898,0.0158691,0.0206604,
5900,0.00732422,0.0205688,
5902,-0.00732422,0.0202087,
5904,0.00488281,0.0202332,
5906,-0.0238037,0.0200562,
5908,-0.0231934,0.0202881,
5910,0.0354004,0.0205078,
5912,0.0372314,0.0207764,
5914,-0.0384521,0.0211365,
5916,0.00915527,0.0208984,
5918,-0.0286865,0.0211609,
5920,0.0164795,0.0210876,
5922,0.0128174,0.0210693,
5924,-0.0500488,0.0209534,
5926,-0.000610352,0.0206177,
5928,0.0213623,0.0204529,
5930,-0.0445557,0.0205322,
5932,-0.00915527,0.0204773,
5934,-0.0115967,0.0204712,
5936,0.0292969,0.0199524,
5938,0.00549316,0.0200073,
5940,-0.0445557,0.0197632,
5942,0.0146484,0.0197144,
5944,0.0360107,0.0197632,
5946,-0.0231934,0.0196838,
5948,0.0262451,0.0198975,
5950,-0.00366211,0.0195007,
5952,0.0616455,0.0200378,
5954,0.0665283,0.020575,
5956,0.0146484,0.0205261,
5958,0.0238037,0.0207458,
5960,0.0714111,0.0212463,
5962,0.0250244,0.0213989,
5964,0.03479,0.021637,
5966,-0.0286865,0.0218201,
5968,-0.0231934,0.0218445,
5970,-0.00488281,0.0216248,
5972,0.0402832,0.0218872,
5974,0.0146484,0.0218079,
5976,0.101929,0.0226074,
5978,0.205688,0.0242432,
5980,0.183105,0.025824,
5982,0.234375,0.0281616,
5984,0.197754,0.0299316,
5986,0.214233,0.0317993,
5988,0.0598145,0.0318909,
5990,-0.00732422,0.0311646,
5992,-0.0134277,0.03125,
5994,-0.158691,0.0325134,
5996,-0.13916,0.0338257,
5998,-0.233765,0.0361206,
6000,-0.29541,0.0389099,
6002,-0.0878906,0.0396423,
6004,-0.103149,0.0406006,
6006,-0.0891113,0.041394,
6008,-0.0183105,0.041449,
6010,0.00915527,0.0415161,
6012,0.10376,0.0424194,
6014,0.010376,0.0423401,
6016,0.0518799,0.0427307,
6018,0.15625,0.0442749,
6020,0.0500488,0.0447327,
6022,0.0482178,0.0451477,
6024,-0.0354004,0.045166,
6026,-0.0854492,0.0459961,
6028,-0.0665283,0.0463013,
6030,-0.0897217,0.046759,
6032,-0.0970459,0.0475769,
6034,-0.159302,0.0491028,
6036,-0.0915527,0.0497314,
6038,-0.067749,0.0503662,
6040,-0.0769043,0.0506775,
6042,0.125732,0.0516846,
6044,0.276489,0.0540344,
6046,0.270386,0.0564026,
6048,0.116577,0.0574158,
6050,0.15625,0.0589661,
6052,0.0604248,0.0590881,
6054,0.201416,0.0610046,
6056,0.100708,0.0614075,
6058,-0.0848389,0.0622375,
6060,-0.322266,0.0652283,
6062,-0.100708,0.0662048,
6064,-0.0872803,0.0670227,
6066,-0.0170898,0.0669983,
6068,0.0299072,0.0671265,
6070,-0.0134277,0.066925,
6072,-0.106201,0.0678772,
6074,-0.0701904,0.0685181,
6076,0.000610352,0.0684021,
6078,0.098877,0.0691284,
6080,-0.0524902,0.0692749,
6082,-0.0775146,0.0700317,
6084,-0.00610352,0.0698669,
6086,0.0744629,0.070575,
6088,0.078125,0.0713379,
6090,0.100708,0.0721802,
6092,0.0543213,0.0725281,
6094,-0.0488281,0.0728699,
6096,0.0195313,0.0728455,
6098,-0.0579834,0.0732666,
6100,-0.159912,0.0747925,
6102,-0.211792,0.0768372,
6104,-0.12207,0.078009,
6106,-0.10376,0.0788086,
6108,-0.0488281,0.0790649,
6110,0.145264,0.0801636,
6112,0.0921631,0.0807129,
6114,0.0262451,0.0805908,
6116,0.264282,0.0831421,
6118,0.189819,0.0847534,
6120,0.0787354,0.085376,
6122,-0.0872803,0.0861206,
6124,-0.214844,0.0877686,
6126,-0.0384521,0.088147,
6128,-0.0415039,0.0883484,
6130,-0.10437,0.0889465,
6132,-0.0500488,0.0893555,
6134,-0.194092,0.0911804,
6136,0.0872803,0.0917603,
6138,0.233765,0.094043,
6140,-0.0762939,0.0943604,
6142,0.131836,0.0955322,
6144,0.12085,0.0963806,
6146,0.0592041,0.0967407,
6148,0.0219727,0.096698,
6150,-0.332642,0.0999878,
6152,0.114746,0.100519,
6154,-0.183105,0.101685,
6156,-0.0689697,0.102228,
6158,-0.00915527,0.102081,
6160,-0.0646973,0.102014,
6162,0.166626,0.10343,
6164,0.0109863,0.103192,
6166,0.300903,0.105914,
6168,-0.055542,0.106238,
6170,0.169067,0.10788,
6172,0.228882,0.109766,
6174,-0.0140381,0.10976,
6176,0.020752,0.108948,
6178,0.120239,0.108093,
6180,-0.101318,0.107275,
6182,-0.0219727,0.105151,
6184,-0.0646973,0.103821,
6186,0.010376,0.101782,
6188,0.20874,0.103271,
6190,0.195923,0.105157,
6192,0.233765,0.107361,
6194,-0.0787354,0.106561,
6196,-0.269165,0.107861,
6198,0.0872803,0.106396,
6200,0.0909424,0.104352,
6202,0.0384521,0.103857,
6204,0.296631,0.105792,
6206,-0.311279,0.108014,
6208,-0.123901,0.10907,
6210,0.120239,0.110181,
6212,0.22644,0.111407,
6214,0.170898,0.113013,
6216,-0.0286865,0.112781,
6218,-0.183716,0.113055,
6220,-0.0366211,0.112921,
6222,-0.10437,0.113483,
6224,0.0408936,0.113538,
6226,-0.0610352,0.113293,
6228,-0.169067,0.114319,
6230,0.272827,0.11615,
6232,0.140991,0.116589,
6234,-0.142822,0.116425,
6236,0.374146,0.11925,
6238,-0.409546,0.122668,
6240,0.00366211,0.121936,
6242,0.0366211,0.121045,
6244,0.0769043,0.119049,
6246,-0.228882,0.118634,
6248,-0.302124,0.12049,
6250,-0.233154,0.121259,
6252,0.439453,0.125049,
6254,0.864258,0.131677,
6256,0.170898,0.132379,
6258,-0.163574,0.133167,
6260,-0.261841,0.132562,
6262,0.258789,0.134143,
6264,-0.00793457,0.13335,
6266,-0.122681,0.134406,
6268,0.502319,0.13913,
6270,-0.737915,0.146375,
6272,-0.628052,0.151593,
6274,-0.125732,0.152148,
6276,0.290527,0.155048,
6278,0.157471,0.155634,
6280,-0.0952148,0.156061,
6282,0.470581,0.159991,
6284,-0.353394,0.163464,
6286,-0.322266,0.165942,
6288,0.604248,0.171204,
6290,0.858765,0.178784,
6292,-0.0921631,0.179163,
6294,-0.387573,0.18255,
6296,-0.0933838,0.183289,
6298,0.0543213,0.183252,
6300,-0.169678,0.18335,
6302,-0.102539,0.182257,
6304,-0.145874,0.182495,
6306,-0.0506592,0.181964,
6308,-0.299683,0.184473,
6310,0.183105,0.184851,
6312,0.055542,0.184485,
6314,0.090332,0.185126,
6316,0.19043,0.184387,
6318,0.281372,0.185303,
6320,0.361328,0.188129,
6322,-0.195313,0.189209,
6324,-0.328979,0.19035,
6326,0.065918,0.190625,
6328,0.385132,0.194061,
6330,-0.124512,0.194263,
6332,-0.319214,0.196954,
6334,0.187378,0.196887,
6336,0.299072,0.199005,
6338,-0.245972,0.199127,
6340,0.0830078,0.199194,
6342,0.00183105,0.197894,
6344,0.219727,0.198883,
6346,-0.0683594,0.198975,
6348,-0.216064,0.200916,
6350,-0.169067,0.19928,
6352,0.0982666,0.199115,
6354,-0.596924,0.203253,
6356,0.515747,0.207721,
6358,0.405273,0.211682,
6360,-0.0415039,0.21145,
6362,-0.0219727,0.210004,
6364,0.109253,0.210986,
6366,0.125122,0.209229,
6368,0.12146,0.209888,
6370,0.244751,0.210645,
6372,-0.391235,0.212268,
6374,-0.10437,0.213171,
6376,0.0378418,0.213342,
6378,0.350952,0.215649,
6380,-0.045166,0.215088,
6382,-0.186157,0.21673,
6384,-0.554199,0.221625,
6386,-0.0231934,0.221753,
6388,0.043335,0.220099,
6390,0.10376,0.219177,
6392,-0.0964355,0.217804,
6394,-0.148926,0.218506,
6396,-0.0695801,0.21651,
6398,0.162354,0.217261,
6400,0.126953,0.217621,
6402,0.441284,0.221649,
6404,0.492554,0.223608,
6406,-0.0421143,0.220917,
6408,-0.807495,0.227753,
6410,0.234985,0.2289,
6412,0.223389,0.22887,
6414,-0.292358,0.230084,
6416,-0.228271,0.23208,
6418,0.098877,0.231232,
6420,-0.139771,0.232263,
6422,-0.164185,0.232861,
6424,0.459595,0.237048,
6426,0.281372,0.239252,
6428,-0.0946045,0.238507,
6430,0.20752,0.237854,
6432,0.285645,0.239301,
6434,-0.475464,0.242627,
6436,-0.152588,0.240411,
6438,0.229492,0.238611,
6440,-0.0921631,0.239496,
6442,-0.174561,0.240875,
6444,-0.213013,0.242236,
6446,0.239868,0.242346,
6448,-0.0701904,0.240027,
6450,0.217896,0.239874,
6452,-0.184326,0.237323,
6454,-0.267944,0.23136,
6456,-0.109863,0.23075,
6458,0.366211,0.232776,
6460,0.270996,0.232867,
6462,-0.457153,0.234851,
6464,-0.159302,0.236365,
6466,0.153198,0.23667,
6468,0.142822,0.233075,
6470,0.0219727,0.225916,
6472,0.0836182,0.220471,
6474,0.293579,0.22215,
6476,-0.00488281,0.219293,
6478,-0.432739,0.222046,
6480,-0.285034,0.223944,
6482,0.22522,0.22149,
6484,0.115356,0.21911,
6486,-0.248413,0.218372,
6488,-0.368042,0.21601,
6490,-0.192261,0.209344,
6492,0.532837,0.213751,
6494,0.0854492,0.21073,
6496,-0.0866699,0.210663,
6498,0.0805664,0.210925,
6500,-0.0537109,0.209766,
6502,0.233154,0.211072,
6504,0.032959,0.209943,
6506,-0.438232,0.213818,
6508,0.0109863,0.210931,
6510,-0.241699,0.211517,
6512,0.0872803,0.211835,
6514,-0.0292969,0.211224,
6516,-0.00427246,0.209363,
6518,0.19043,0.208453,
6520,0.142822,0.206268,
6522,0.101929,0.205334,
6524,-0.213013,0.204175,
6526,-0.153198,0.205048,
6528,-0.0195313,0.201392,
6530,0.102539,0.201172,
6532,0.484009,0.20282,
6534,0.204468,0.202991,
6536,-0.55542,0.205554,
6538,0.141602,0.20451,
6540,0.644531,0.210126,
6542,-0.0543213,0.210651,
6544,-0.664063,0.215094,
6546,-0.172119,0.216132,
6548,-0.00915527,0.214063,
6550,-0.305786,0.21543,
6552,-0.151367,0.215961,
6554,0.0463867,0.210455,
6556,-0.469971,0.209998,
6558,-0.107422,0.207019,
6560,0.141602,0.20802,
6562,0.368042,0.211481,
6564,0.366211,0.21405,
6566,0.157471,0.214374,
6568,-0.351563,0.216675,
6570,0.302124,0.217249,
6572,0.406494,0.217401,
6574,-0.0177002,0.216534,
6576,-0.290527,0.219061,
6578,0.250244,0.218054,
6580,-0.39978,0.2216,
6582,-0.160522,0.221344,
6584,-0.230713,0.218109,
6586,-0.10376,0.218915,
6588,0.41748,0.222656,
6590,0.0769043,0.222388,
6592,-0.515747,0.226581,
6594,-0.291748,0.228009,
6596,0.574951,0.233063,
6598,0.0982666,0.232422,
6600,-0.213623,0.233289,
6602,0.175171,0.230627,
6604,-0.185547,0.227557,
6606,-0.246582,0.229602,
6608,0.31189,0.224646,
6610,0.125732,0.223553,
6612,-0.280151,0.224121,
6614,0.0140381,0.221338,
6616,0.143433,0.22049,
6618,-0.319214,0.222693,
6620,-0.155029,0.222845,
6622,-0.0280762,0.221484,
6624,-0.22522,0.219141,
6626,0.0830078,0.217157,
6628,-0.00488281,0.21626,
6630,-0.0958252,0.215143,
6632,0.184937,0.214136,
6634,0.214844,0.21153,
6636,-0.131226,0.211316,
6638,0.149536,0.210516,
6640,0.26001,0.212195,
6642,-0.164185,0.212091,
6644,0.110474,0.211066,
6646,-0.211792,0.210785,
6648,-0.122681,0.21131,
6650,-0.219116,0.211322,
6652,0.134277,0.210822,
6654,0.213013,0.210272,
6656,-0.0396729,0.20957,
6658,0.010376,0.206012,
6660,0.0622559,0.203925,
6662,0.00671387,0.19942,
6664,-0.00610352,0.197888,
6666,0.316162,0.199518,
6668,-0.0549316,0.198639,
6670,-0.272827,0.201147,
6672,-0.264893,0.20296,
6674,0.0146484,0.200171,
6676,0.167236,0.201794,
6678,0.0561523,0.198029,
6680,-0.177612,0.196954,
6682,-0.288086,0.197583,
6684,0.161743,0.198047,
6686,0.0201416,0.195764,
6688,0.0878906,0.192963,
6690,0.196533,0.193005,
6692,0.10437,0.188721,
6694,-0.257568,0.190442,
6696,-0.0262451,0.189838,
6698,0.170898,0.190741,
6700,-0.103149,0.191235,
6702,0.324707,0.192151,
6704,0.146484,0.193286,
6706,-0.194092,0.190845,
6708,0.0848389,0.191583,
6710,-0.255737,0.191724,
6712,0.0323486,0.191174,
6714,0.0848389,0.19173,
6716,0.0146484,0.191833,
6718,-0.36438,0.193573,
6720,-0.166016,0.193805,
6722,-0.275269,0.195538,
6724,-0.194092,0.195349,
6726,0.34729,0.19729,
6728,-0.240479,0.1995,
6730,0.165405,0.200128,
6732,0.291748,0.198206,
6734,-0.371704,0.199878,
6736,-0.0671387,0.194995,
6738,0.248413,0.196063,
6740,-0.0115967,0.189734,
6742,-0.10376,0.190228,
6744,-0.369263,0.18728,
6746,0.307007,0.188629,
6748,0.140991,0.189948,
6750,0.0177002,0.187067,
6752,-0.0891113,0.186444,
6754,-0.272217,0.188702,
6756,-0.00732422,0.184076,
6758,-0.0457764,0.183459,
6760,-0.0164795,0.182208,
6762,0.000610352,0.178534,
6764,-0.214844,0.17702,
6766,-0.167847,0.177124,
6768,-0.00488281,0.173657,
6770,0.247803,0.173114,
6772,0.0238037,0.169287,
6774,0.150757,0.170618,
6776,0.159912,0.169312,
6778,0.0012207,0.166821,
6780,-0.0177002,0.163,
6782,-0.257568,0.163971,
6784,0.189209,0.163556,
6786,-0.012207,0.16264,
6788,0.152588,0.159991,
6790,-0.342407,0.162646,
6792,-0.405273,0.161542,
6794,0.100708,0.159631,
6796,0.0286865,0.154169,
6798,-0.170288,0.154889,
6800,-0.0476074,0.153229,
6802,0.311279,0.15459,
6804,-0.281372,0.155548,
6806,-0.134888,0.154431,
6808,-0.0274658,0.151587,
6810,0.256958,0.152899,
6812,0.0756836,0.150854,
6814,0.0274658,0.150989,
6816,0.088501,0.150439,
6818,-0.0402832,0.14765,
6820,-0.106201,0.147162,
6822,0.101318,0.147894,
6824,0.00976563,0.14574,
6826,0.0012207,0.144922,
6828,0.108032,0.145953,
6830,-0.227661,0.147272,
6832,-0.236206,0.147784,
6834,0.134888,0.146985,
6836,0.425415,0.149927,
6838,-0.31311,0.151562,
6840,-0.106812,0.150031,
6842,0.057373,0.148962,
6844,-0.0720215,0.148578,
6846,-0.115967,0.14762,
6848,0.164185,0.148035,
6850,-0.214844,0.147992,
6852,-0.0592041,0.147241,
6854,-0.0128174,0.145239,
6856,0.0946045,0.145789,
6858,0.0854492,0.146539,
6860,0.0286865,0.146204,
6862,0.261841,0.148755,
6864,0.0115967,0.14881,
6866,-0.149536,0.147144,
6868,-0.00427246,0.146637,
6870,0.259399,0.146503,
6872,-0.0720215,0.144574,
6874,-0.239868,0.146826,
6876,-0.078125,0.145935,
6878,0.0994873,0.146368,
6880,-0.133057,0.145923,
6882,-0.00244141,0.143066,
6884,0.100708,0.142456,
6886,0.020752,0.142462,
6888,0.0146484,0.14173,
6890,0.106812,0.140833,
6892,-0.0585938,0.140375,
6894,0.335693,0.141156,
6896,0.280762,0.143701,
6898,-0.0268555,0.142261,
6900,-0.656738,0.147797,
6902,0.0341797,0.144891,
6904,0.0830078,0.144257,
6906,-0.175781,0.144073,
6908,-0.303955,0.146265,
6910,-0.189209,0.145599,
6912,0.0140381,0.145416,
6914,-0.180664,0.146375,
6916,-0.129395,0.147522,
6918,0.180054,0.145679,
6920,0.262451,0.146643,
6922,0.0854492,0.144745,
6924,-0.0012207,0.142816,
6926,0.0958252,0.140302,
6928,0.0152588,0.138049,
6930,-0.167236,0.138068,
6932,-0.0323486,0.135474,
6934,0.0805664,0.132562,
6936,-0.0177002,0.132068,
6938,0.0805664,0.130389,
6940,-0.0842285,0.131116,
6942,-0.105591,0.131134,
6944,-0.043335,0.127875,
6946,0.111084,0.125916,
6948,0.197144,0.126477,
6950,-0.0567627,0.126868,
6952,-0.165405,0.127631,
6954,0.0457764,0.125366,
6956,-0.0982666,0.126276,
6958,-0.0195313,0.126013,
6960,-0.100098,0.126849,
6962,-0.0311279,0.127155,
6964,0.255127,0.127557,
6966,0.301514,0.128894,
6968,-0.0280762,0.129126,
6970,0.204468,0.128693,
6972,0.0421143,0.128876,
6974,-0.126953,0.128638,
6976,0.0958252,0.127997,
6978,-0.0732422,0.128717,
6980,-0.263062,0.131171,
6982,-0.182495,0.13042,
6984,-0.165405,0.130182,
6986,-0.200806,0.132068,
6988,0.198975,0.132532,
6990,0.235596,0.131464,
6992,0.146484,0.128876,
6994,-0.148926,0.129358,
6996,0.0488281,0.129559,
6998,-0.166626,0.129523,
7000,-0.0115967,0.129163,
7002,-0.0708008,0.126758,
7004,-0.259399,0.126538,
7006,-0.122681,0.126416,
7008,0.0115967,0.126257,
7010,0.166626,0.125354,
7012,0.155029,0.126147,
7014,-0.10376,0.12691,
7016,0.148926,0.127515,
7018,0.183716,0.128949,
7020,0.0012207,0.127899,
7022,-0.0793457,0.127679,
7024,-0.148926,0.129071,
7026,-0.00732422,0.129132,
7028,0.0646973,0.128699,
7030,-0.180054,0.128223,
7032,-0.0506592,0.126367,
7034,0.108032,0.126099,
7036,-0.0463867,0.122308,
7038,-0.111694,0.120294,
7040,-0.0701904,0.119928,
7042,-0.00976563,0.119452,
7044,-0.045166,0.119183,
7046,0.0439453,0.118463,
7048,0.045166,0.117273,
7050,-0.0146484,0.115271,
7052,0.0115967,0.114795,
7054,0.126343,0.11593,
7056,-0.0134277,0.115118,
7058,0.195923,0.116223,
7060,-0.0219727,0.116156,
7062,-0.0805664,0.114343,
7064,-0.143433,0.115662,
7066,0.137939,0.115546,
7068,-0.112915,0.116632,
7070,-0.0683594,0.114722,
7072,-0.0482178,0.114484,
7074,0.17334,0.113818,
7076,-0.0952148,0.113989,
7078,-0.101929,0.114014,
7080,0.0714111,0.113397,
7082,0.0878906,0.114252,
7084,-0.123901,0.114484,
7086,0.119629,0.115472,
7088,0.125732,0.116583,
7090,-0.0732422,0.116248,
7092,0.159302,0.117255,
7094,0.12146,0.115112,
7096,-0.143433,0.113739,
7098,0.12085,0.114679,
7100,-0.0671387,0.108783,
7102,0.0158691,0.1086,
7104,-0.0189209,0.107959,
7106,-0.198975,0.108191,
7108,-0.220337,0.107355,
7110,0.0946045,0.106409,
7112,-0.185547,0.108124,
7114,0.022583,0.106543,
7116,0.0012207,0.105261,
7118,0.0421143,0.103882,
7120,0.290527,0.104163,
7122,0.335693,0.106665,
7124,0.411377,0.110767,
7126,-0.411987,0.113928,
7128,0.00244141,0.1138,
7130,0.141602,0.113544,
7132,-0.0115967,0.113336,
7134,-0.135498,0.113885,
7136,-0.298462,0.116693,
7138,-0.418091,0.120068,
7140,-0.201416,0.12124,
7142,0.0183105,0.120367,
7144,0.0415039,0.120349,
7146,0.0299072,0.119537,
7148,-0.0152588,0.117719,
7150,0.0402832,0.117554,
7152,-0.0238037,0.116138,
7154,0.0628662,0.116309,
7156,0.0274658,0.115601,
7158,-0.0585938,0.115991,
7160,-0.00366211,0.115027,
7162,0.217285,0.116888,
7164,0.481567,0.119153,
7166,0.170288,0.117841,
7168,0.0256348,0.117816,
7170,-0.187988,0.117651,
7172,0.0195313,0.117426,
7174,0.0506592,0.116663,
7176,-0.167236,0.117377,
7178,-0.217285,0.118817,
7180,-0.261841,0.118805,
7182,-0.0842285,0.117822,
7184,0.294189,0.11911,
7186,0.181274,0.118915,
7188,0.172119,0.118646,
7190,0.162964,0.11792,
7192,0,0.116455,
7194,-0.0628662,0.115594,
7196,0.0592041,0.115698,
7198,-0.172119,0.115753,
7200,-0.0830078,0.116467,
7202,0.0201416,0.115961,
7204,0.0787354,0.114154,
7206,-0.088501,0.113812,
7208,0.0823975,0.11452,
7210,0.119629,0.11405,
7212,-0.067749,0.113177,
7214,-0.0341797,0.112482,
7216,-0.032959,0.111322,
7218,-0.24292,0.111914,
7220,-0.057373,0.112476,
7222,0.151367,0.113196,
7224,-0.117188,0.112878,
7226,0.158081,0.114386,
7228,0.0830078,0.114569,
7230,0.0634766,0.113403,
7232,-0.0201416,0.113098,
7234,-0.00671387,0.112085,
7236,0.0823975,0.112445,
7238,-0.0994873,0.112323,
7240,-0.0335693,0.111957,
7242,0.0476074,0.112335,
7244,-0.174561,0.113629,
7246,0.0488281,0.113678,
7248,0.0567627,0.113794,
7250,0.349731,0.117145,
7252,0.0610352,0.117639,
7254,-0.17395,0.118115,
7256,0.120239,0.119183,
7258,0.245361,0.119678,
7260,-0.193481,0.121393,
7262,-0.206299,0.12265,
7264,0.0335693,0.121552,
7266,-0.0744629,0.120917,
7268,-0.0262451,0.12005,
7270,-0.123291,0.120599,
7272,-0.3479,0.123596,
7274,-0.0518799,0.122382,
7276,0.137329,0.122803,
7278,0.0958252,0.122742,
7280,0.0866699,0.122894,
7282,0.0598145,0.122614,
7284,-0.198975,0.123364,
7286,-0.0335693,0.122504,
7288,0.223999,0.123486,
7290,-0.220947,0.124963,
7292,0.0323486,0.123694,
7294,-0.166016,0.124139,
7296,-0.0512695,0.123218,
7298,-0.0109863,0.122119,
7300,-0.0567627,0.122015,
7302,0.0482178,0.122339,
7304,-0.186768,0.124017,
7306,0.0543213,0.122571,
7308,-0.0012207,0.12038,
7310,-0.00732422,0.119507,
7312,-0.0012207,0.117664,
7314,0.0787354,0.118225,
7316,-0.0012207,0.118225,
7318,-0.0396729,0.118201,
7320,-0.0402832,0.115698,
7322,0.0646973,0.112988,
7324,0.144043,0.110315,
7326,-0.145874,0.107654,
7328,-0.106201,0.108691,
7330,-0.045166,0.107727,
7332,0.078125,0.108392,
7334,-0.181885,0.108856,
7336,0.00183105,0.10589,
7338,0.090332,0.102612,
7340,-0.0469971,0.101068,
7342,0.140991,0.102295,
7344,0.0494385,0.102374,
7346,0.126953,0.103345,
7348,0.0463867,0.103656,
7350,-0.0579834,0.103833,
7352,0.135498,0.10495,
7354,-0.0653076,0.104974,
7356,-0.148315,0.106183,
7358,-0.0299072,0.105896,
7360,-0.088501,0.106744,
7362,-0.109863,0.10567,
7364,-0.0756836,0.101611,
7366,-0.0891113,0.1008,
7368,-0.012207,0.100665,
7370,0.0482178,0.0992676,
7372,0.119629,0.100269,
7374,-0.0195313,0.0999573,
7376,0.0408936,0.0986938,
7378,0.139771,0.0979187,
7380,-0.206909,0.0973694,
7382,0.0177002,0.0967041,
7384,-0.0360107,0.0941223,
7386,0.0323486,0.0926331,
7388,-0.0567627,0.0914795,
7390,-0.10498,0.0908997,
7392,0.0152588,0.0910522,
7394,0.0616455,0.09104,
7396,0.123901,0.091687,
7398,-0.100098,0.0909668,
7400,0.22522,0.0923889,
7402,0.165405,0.0938416,
7404,-0.00732422,0.0931274,
7406,-0.0561523,0.092804,
7408,-0.0152588,0.0921326,
7410,-0.0494385,0.0914307,
7412,-0.00305176,0.0907837,
7414,-0.103149,0.0914734,
7416,-0.181274,0.0929565,
7418,-0.0958252,0.0914856,
7420,-0.0488281,0.0914001,
7422,0.0964355,0.0908508,
7424,0.0488281,0.0901672,
7426,-0.0793457,0.0893799,
7428,0.0683594,0.0892334,
7430,0.00244141,0.088623,
7432,0.0750732,0.0891724,
7434,-0.0213623,0.0893188,
7436,-0.132446,0.0898193,
7438,0.0604248,0.0894287,
7440,-0.0933838,0.0900269,
7442,-0.010376,0.0896545,
7444,0.0250244,0.0881592,
7446,-0.0476074,0.088147,
7448,-0.0177002,0.0877563,
7450,0.0518799,0.0847778,
7452,0.0164795,0.0843323,
7454,-0.00366211,0.0826294,
7456,0.0140381,0.0815674,
7458,0.0610352,0.0797241,
7460,-0.00244141,0.0778137,
7462,-0.0213623,0.0759644,
7464,0.0463867,0.0760925,
7466,-0.0244141,0.075592,
7468,0.0695801,0.0760254,
7470,0.00488281,0.0748413,
7472,-0.00976563,0.07146,
7474,-0.03479,0.0712891,
7476,0.0384521,0.0703003,
7478,0.110474,0.0704468,
7480,-0.137329,0.0709534,
7482,0.00183105,0.0703735,
7484,-0.00244141,0.0684082,
7486,0.032959,0.0684021,
7488,-0.0128174,0.0662903,
7490,-0.0323486,0.0644043,
7492,0.00488281,0.0641296,
7494,-0.0280762,0.0627502,
7496,-0.0262451,0.0625,
7498,0.0323486,0.0627136,
7500,0.0213623,0.0623596,
7502,0,0.0618774,
7504,-0.0610352,0.0606201,
7506,-0.0256348,0.0603333,
7508,-0.0195313,0.0605164,
7510,0.0439453,0.0608826,
7512,0.0262451,0.0611328,
7514,-0.0933838,0.0612793,
7516,-0.0177002,0.0614441,
7518,0.0439453,0.0614868,
7520,0.00183105,0.0611023,
7522,0.0177002,0.0606323,
7524,-0.0817871,0.0600098,
7526,0.0164795,0.0587158,
7528,0.0427246,0.0580811,
7530,-0.0421143,0.0580505,
7532,-0.0238037,0.0575073,
7534,0.0445557,0.056134,
7536,0.03479,0.0564636,
7538,-0.0579834,0.0561401,
7540,-0.0488281,0.0561584,
7542,0.124512,0.0559937,
7544,0.0170898,0.0556702,
7546,-0.065918,0.0550598,
7548,-0.0280762,0.0548767,
7550,-0.0628662,0.0549255,
7552,0.0463867,0.0540344,
7554,0.0482178,0.0538635,
7556,-0.0500488,0.0528809,
7558,0.00183105,0.0526001,
7560,0.045166,0.0521667,
7562,-0.0836182,0.0519043,
7564,0.0561523,0.051709,
7566,-0.0592041,0.0514099,
7568,-0.0317383,0.0516052,
7570,-0.00671387,0.0511902,
7572,0.0512695,0.0505066,
7574,-0.169678,0.0520081,
7576,-0.0543213,0.0521423,
7578,0.043335,0.051178,
7580,-0.0231934,0.0493408,
7582,-0.0164795,0.0493286,
7584,0.00854492,0.049054,
7586,-0.0134277,0.0488647,
7588,-0.00976563,0.0483948,
7590,-0.0335693,0.0476807,
7592,0.0811768,0.0483398,
7594,0.00305176,0.0477539,
7596,-0.0152588,0.0466675,
7598,-0.00244141,0.0456909,
7600,-0.00549316,0.0434937,
7602,0.108032,0.0429199,
7604,0.0213623,0.0430603,
7606,-0.067749,0.0431763,
7608,-0.0286865,0.0433105,
7610,0.043335,0.0432495,
7612,-0.0201416,0.0434204,
7614,-0.0140381,0.0425293,
7616,-0.0708008,0.0414246,
7618,-0.0177002,0.0406433,
7620,0.0878906,0.0410339,
7622,-0.0439453,0.040509,
7624,-0.0360107,0.0403809,
7626,-0.00366211,0.039624,
7628,0.0714111,0.0396545,
7630,-0.057373,0.0402039,
7632,0.057373,0.0400269,
7634,-0.0738525,0.0405518,
7636,-0.0518799,0.0397461,
7638,0.0341797,0.0394836,
7640,-0.0354004,0.0389038,
7642,0.010376,0.0389038,
7644,0.0634766,0.0392883,
7646,-0.0891113,0.0397034,
7648,0.0653076,0.0401794,
7650,0.00610352,0.0397217,
7652,0.157471,0.0411316,
7654,-0.0231934,0.0413269,
7656,-0.0500488,0.041687,
7658,-0.0177002,0.0412537,
7660,0.0500488,0.0417297,
7662,0.020752,0.0417236,
7664,0.00488281,0.0413086,
7666,-0.055542,0.0416199,
7668,0.00183105,0.0409424,
7670,-0.0689697,0.0415833,
7672,0.0128174,0.0416138,
7674,-0.020752,0.0414734,
7676,0.0189209,0.0412781,
7678,-0.00183105,0.0401917,
7680,-0.00549316,0.0388733,
7682,-0.0286865,0.0391418,
7684,0.0012207,0.0391296,
7686,0.116577,0.0399658,
7688,0.00732422,0.0399109,
7690,-0.0537109,0.0401245,
7692,0.0140381,0.0402161,
7694,0.0714111,0.0406494,
7696,-0.0177002,0.040564,
7698,-0.0518799,0.0407593,
7700,-0.0378418,0.0409241,
7702,0.0708008,0.0416321,
7704,-0.0268555,0.0412903,
7706,0.0360107,0.041394,
7708,-0.0366211,0.0415649,
7710,0.0445557,0.041571,
7712,0.144043,0.042749,
7714,-0.0457764,0.0422729,
7716,0.0177002,0.0422729,
7718,0.00976563,0.0419312,
7720,-0.00854492,0.0419983,
7722,0.0134277,0.0419556,
7724,-0.067749,0.0418152,
7726,-0.010376,0.0417542,
7728,0.0128174,0.0414551,
7730,-0.0445557,0.0414795,
7732,-0.0238037,0.0414795,
7734,-0.010376,0.0411377,
7736,0.112305,0.0419128,
7738,0.0634766,0.0419678,
7740,-0.0408936,0.0418884,
7742,0.0299072,0.0409424,
7744,0.133057,0.0421021,
7746,-0.0378418,0.0418213,
7748,0.0482178,0.0420227,
7750,-0.0396729,0.0417908,
7752,0.0140381,0.0414673,
7754,0.0335693,0.0413208,
7756,0.00671387,0.0408875,
7758,-0.0610352,0.0414795,
7760,-0.0518799,0.0415466,
7762,0.0305176,0.0410156,
7764,-0.00549316,0.040509,
7766,-0.0518799,0.0404358,
7768,0.00488281,0.0401672,
7770,-0.0280762,0.0403809,
7772,0.0598145,0.0404663,
7774,-0.0708008,0.0394775,
7776,0.0152588,0.0390869,
7778,0.0488281,0.0391418,
7780,0.00305176,0.0389404,
7782,0.127563,0.0400513,
7784,-0.00793457,0.0400452,
7786,-0.098877,0.0408997,
7788,0.101318,0.0418152,
7790,-0.012207,0.0416016,
7792,0.0421143,0.0412109,
7794,0.00854492,0.0412659,
7796,-0.00976563,0.0412109,
7798,0.0567627,0.0417542,
7800,-0.067749,0.0423767,
7802,0.03479,0.0416443,
7804,0.0256348,0.041687,
7806,-0.0549316,0.0415588,
7808,0.00305176,0.0413025,
7810,0.0134277,0.0410034,
7812,-0.0177002,0.040979,
7814,-0.0396729,0.0412354,
7816,0.0183105,0.0407104,
7818,0.0213623,0.0407471,
7820,0.0213623,0.0400818,
7822,0.0823975,0.0404663,
7824,0.0311279,0.0404175,
7826,0.00915527,0.0404724,
7828,0.0415039,0.0401733,
7830,0.0811768,0.0404114,
7832,-0.0506592,0.0403442,
7834,0.0195313,0.039801,
7836,0.078125,0.0400635,
7838,-0.0531006,0.0402527,
7840,-0.119019,0.0410889,
7842,0.0219727,0.0412048,
7844,0.0445557,0.0410156,
7846,-0.0421143,0.0405457,
7848,-0.0372314,0.0402649,
7850,-0.067749,0.0408813,
7852,0.065918,0.0399658,
7854,0.0354004,0.0400879,
7856,0.0164795,0.0397522,
7858,0.00366211,0.0396118,
7860,0.03479,0.0394592,
7862,0.0378418,0.0396301,
7864,-0.0341797,0.0399231,
7866,-0.0482178,0.0398499,
7868,0.0817871,0.0406494,
7870,-0.0415039,0.0403748,
7872,-0.0531006,0.0407776,
7874,-0.067749,0.0412476,
7876,0.120239,0.0422607,
7878,0.0274658,0.0425171,
7880,-0.141602,0.0438782,
7882,0.010376,0.0436951,
7884,0.0158691,0.0438416,
7886,-0.0305176,0.042981,
7888,-0.000610352,0.0429138,
7890,-0.0720215,0.0430969,
7892,0.00671387,0.0430237,
7894,0.0012207,0.0423218,
7896,-0.0561523,0.0427063,
7898,0.0769043,0.0429565,
7900,-0.0299072,0.0428772,
7902,0.00488281,0.042218,
7904,0.0244141,0.0421936,
7906,-0.0128174,0.0419617,
7908,0.0170898,0.0417664,
7910,0.0445557,0.0417664,
7912,-0.102539,0.0413513,
7914,0.0311279,0.0412048,
7916,-0.00183105,0.0410461,
7918,0.0396729,0.0413452,
7920,-0.0354004,0.0416138,
7922,0.0488281,0.0419678,
7924,-0.0134277,0.0414246,
7926,-0.0262451,0.0415833,
7928,0.0708008,0.0421631,
7930,0.00366211,0.0417542,
7932,-0.0604248,0.0421204,
7934,-0.0292969,0.0423096,
7936,0.0280762,0.0414673,
7938,-0.0323486,0.041156,
7940,-0.0921631,0.0416687,
7942,0.00976563,0.0414673,
7944,-0.0170898,0.0403076,
7946,-0.0323486,0.0402527,
7948,0.0305176,0.0400757,
7950,-0.0177002,0.039856,
7952,0.0305176,0.0400208,
7954,-0.0164795,0.0398499,
7956,0.0567627,0.0403503,
7958,0.0482178,0.0402222,
7960,-0.0665283,0.0403687,
7962,-0.0335693,0.0403992,
7964,0.0842285,0.0411865,
7966,-0.0512695,0.0411804,
7968,-0.0421143,0.0415527,
7970,0.0238037,0.04151,
7972,0.020752,0.0411194,
7974,-0.0927734,0.0413391,
7976,0.0183105,0.0413696,
7978,0.0408936,0.0412903,
7980,-0.0360107,0.0416199,
7982,-0.00305176,0.0403748,
7984,-0.0427246,0.0407227,
7986,-0.00976563,0.0398315,
7988,0.0494385,0.0393127,
7990,-0.0592041,0.0397827,
7992,0.043335,0.0397949,
7994,0.0134277,0.0398437,
7996,-0.0610352,0.0403564,
7998,0.0177002,0.0399658,
8000,-0.0134277,0.0394226,
8002,0.0177002,0.0392517,
8004,-0.0201416,0.0391968,
8006,-0.0396729,0.0390442,
8008,-0.0323486,0.0393372,
8010,0.0463867,0.0396667,
8012,0.0732422,0.0402222,
8014,-0.115967,0.0409851,
8016,-0.00793457,0.0408813,
8018,0.0531006,0.0411987,
8020,0.0146484,0.0411316,
8022,-0.0164795,0.0404724,
8024,-0.0299072,0.0404602,
8026,0.0115967,0.0404846,
8028,0.0598145,0.0406677,
8030,-0.0848389,0.0407043,
8032,0.0189209,0.040387,
8034,0.0457764,0.0406494,
8036,0.0714111,0.0405823,
8038,-0.0274658,0.0403259,
8040,-0.0872803,0.0400085,
8042,-0.00305176,0.0398193,
8044,0.0268555,0.0396423,
8046,-0.0323486,0.0395447,
8048,-0.0622559,0.0397949,
8050,-0.0360107,0.0394775,
8052,-0.0164795,0.0389832,
8054,0.00183105,0.0386475,
8056,-0.0134277,0.0386169,
8058,0.055542,0.0391357,
8060,0.0115967,0.0389038,
8062,-0.0115967,0.0386414,
8064,0.0354004,0.0386536,
8066,0.0463867,0.0386353,
8068,-0.0170898,0.0379883,
8070,-0.0146484,0.0377197,
8072,-0.0280762,0.0374695,
8074,-0.0793457,0.0375854,
8076,0.0170898,0.036554,
8078,0.0213623,0.0364929,
8080,-0.0848389,0.0359253,
8082,-0.0640869,0.0364624,
8084,-0.012207,0.0364258,
8086,0.0115967,0.0362366,
8088,-0.00793457,0.0363098,
8090,-0.0305176,0.0358948,
8092,0.0634766,0.0364624,
8094,0.0598145,0.0370483,
8096,-0.124512,0.0377319,
8098,0.0415039,0.0373779,
8100,-0.0292969,0.0373718,
8102,0.0231934,0.0375549,
8104,-0.0170898,0.0374817,
8106,-0.0689697,0.0380432,
8108,-0.0463867,0.0383362,
8110,-0.0201416,0.038092,
8112,0.020752,0.0372742,
8114,-0.010376,0.0370667,
8116,-0.0579834,0.0376282,
8118,0.0543213,0.0377747,
8120,0.00549316,0.0374756,
8122,0.0775146,0.0377625,
8124,-0.0854492,0.0384827,
8126,-0.0128174,0.0383484,
8128,0.0695801,0.0383362,
8130,-0.000610352,0.0383057,
8132,0.00549316,0.0377563,
8134,-0.0598145,0.0380615,
8136,-0.0213623,0.0379944,
8138,0.0488281,0.0381592,
8140,-0.00915527,0.0373291,
8142,-0.0537109,0.0377686,
8144,-0.00305176,0.0376282,
8146,-0.00427246,0.0373474,
8148,0.00183105,0.0370605,
8150,-0.0170898,0.0370544,
8152,-0.0177002,0.0369263,
8154,0.0341797,0.0371033,
8156,-0.065918,0.0371948,
8158,0.00671387,0.0367798,
8160,0.0177002,0.0362915,
8162,-0.0152588,0.0361084,
8164,-0.0219727,0.0354858,
8166,-0.0396729,0.0353699,
8168,0.00732422,0.035022,
8170,-0.0238037,0.035022,
8172,-0.0012207,0.0348267,
8174,0.00305176,0.0339294,
8176,0.110474,0.0348511,
8178,0.00671387,0.0345093,
8180,-0.0775146,0.0349243,
8182,0.0408936,0.0353027,
8184,0.0274658,0.0351501,
8186,0.00671387,0.0351196,
8188,0,0.0346252,
8190,-0.100098,0.0350342,
8192,0.010376,0.0347046,
8194,-0.00549316,0.0346252,
8196,-0.0610352,0.0346252,
8198,0.0158691,0.0346069,
8200,-0.0396729,0.0348694,
8202,0.0354004,0.0350464,
8204,0.0390625,0.0352356,
8206,-0.0415039,0.0352539,
8208,0.0201416,0.0351318,
8210,0.00610352,0.034729,
8212,-0.00244141,0.034021,
8214,0.043335,0.0332947,
8216,-0.0323486,0.0335388,
8218,0.0476074,0.0334839,
8220,-0.0256348,0.0335937,
8222,-0.00305176,0.0334595,
8224,-0.0268555,0.033429,
8226,0.00915527,0.0334045,
8228,0.0140381,0.0329468,
8230,0,0.0320984,
8232,-0.0714111,0.0326233,
8234,0.00732422,0.0322388,
8236,0.057373,0.0320984,
8238,0.012207,0.0319458,
8240,-0.0848389,0.0319214,
8242,0.020752,0.0320984,
8244,0.0115967,0.0319458,
8246,-0.0341797,0.0319641,
8248,0.00244141,0.031366,
8250,-0.0256348,0.0312622,
8252,-0.0128174,0.0312256,
8254,0.0262451,0.0314697,
8256,-0.0238037,0.0315735,
8258,-0.0378418,0.0313965,
8260,0.0292969,0.0315735,
8262,0.0341797,0.0317993,
8264,0.0292969,0.0317383,
8266,-0.0897217,0.0321716,
8268,0.0585938,0.0325867,
8270,-0.00366211,0.0324768,
8272,-0.0341797,0.0325378,
8274,-0.0537109,0.0322815,
8276,0.022583,0.0323364,
8278,0.0012207,0.032135,
8280,-0.0531006,0.0318176,
8282,-0.0366211,0.031543,
8284,-0.0256348,0.0316772,
8286,0.0158691,0.03172,
8288,0.0531006,0.0321716,
8290,0.0579834,0.0324463,
8292,-0.0616455,0.032428,
8294,-0.00549316,0.0318848,
8296,0.0299072,0.0309387,
8298,0.0463867,0.0309875,
8300,-0.0585938,0.0312805,
8302,-0.0219727,0.0312683,
8304,0.0378418,0.0314758,
8306,-0.0720215,0.0315063,
8308,-0.0201416,0.0312439,
8310,0.00976563,0.0311401,
8312,0.00854492,0.0310181,
8314,-0.00183105,0.0309326,
8316,-0.0390625,0.0307434,
8318,0.00427246,0.0302429,
8320,0.0640869,0.0308289,
8322,-0.0219727,0.0302734,
8324,-0.0769043,0.030188,
8326,0.0946045,0.0310059,
8328,0.0396729,0.0307068,
8330,-0.0738525,0.0314392,
8332,-0.0201416,0.0315857,
8334,-0.00305176,0.0310181,
8336,0.00549316,0.0308594,
8338,0.00305176,0.0304016,
8340,-0.0854492,0.0311646,
8342,-0.00793457,0.0307068,
8344,0.00610352,0.0307373,
8346,0.00610352,0.0307556,
8348,0.0445557,0.0311829,
8350,-0.020752,0.0312195,
8352,-0.00305176,0.031073,
8354,0.00976563,0.0308289,
8356,-0.00244141,0.0301941,
8358,-0.00915527,0.0302185,
8360,0,0.0300415,
8362,-0.0170898,0.0300598,
8364,-0.0183105,0.0300232,
8366,-0.0274658,0.0299011,
8368,0.00549316,0.0298828,
8370,0.0280762,0.0299255,
8372,-0.0012207,0.0299255,
8374,-0.0292969,0.030188,
8376,0.00366211,0.0291199,
8378,0.0524902,0.0295776,
8380,-0.0213623,0.0290161,
8382,0.00366211,0.0286438,
8384,-0.0335693,0.0287048,
8386,0.045166,0.0290894,
8388,0.00671387,0.0291565,
8390,-0.0421143,0.0285767,
8392,0.0775146,0.029248,
8394,-0.0494385,0.0296875,
8396,-0.0109863,0.029187,
8398,0.0292969,0.0293213,
8400,-0.0500488,0.029425,
8402,-0.010376,0.0291748,
8404,0.03479,0.0291321,
8406,-0.0946045,0.0296631,
8408,-0.032959,0.0297913,
8410,-0.00244141,0.0297546,
8412,0.0164795,0.029895,
8414,-0.0341797,0.0298035,
8416,-0.032959,0.0298096,
8418,0.0244141,0.0295776,
8420,0.0213623,0.0295349,
8422,-0.00976563,0.0296021,
8424,-0.0323486,0.029657,
8426,0.0366211,0.0299316,
8428,0.0396729,0.030188,
8430,-0.0317383,0.0305054,
8432,-0.0177002,0.0299683,
8434,0.0231934,0.030127,
8436,0.00854492,0.0296387,
8438,0.00854492,0.0296021,
8440,-0.0292969,0.0290466,
8442,0.0262451,0.0291016,
8444,0.125122,0.0302368,
8446,-0.0799561,0.0306946,
8448,-0.0402832,0.031073,
8450,0.0372314,0.031189,
8452,0.0396729,0.0314575,
8454,-0.00915527,0.0312866,
8456,-0.0360107,0.0314087,
8458,-0.0427246,0.0314575,
8460,0.00305176,0.0311951,
8462,0.0640869,0.0314941,
8464,0.0933838,0.032135,
8466,-0.159302,0.0328308,
8468,0.0299072,0.0325439,
8470,0.0823975,0.0333313,
8472,-0.043335,0.0334229,
8474,-0.0476074,0.0333618,
8476,0.0128174,0.0332642,
8478,0.00549316,0.0333069,
8480,-0.0469971,0.0332458,
8482,-0.0250244,0.0331299,
8484,0.012207,0.0329956,
8486,0.022583,0.0330627,
8488,0.0250244,0.032782,
8490,-0.0512695,0.0327148,
8492,0.0146484,0.0322449,
8494,0.0421143,0.0326111,
8496,-0.0231934,0.0325439,
8498,0.00549316,0.032135,
8500,-0.0109863,0.0316589,
8502,0.0427246,0.0318665,
8504,0.0274658,0.0317627,
8506,-0.0323486,0.031366,
8508,0.0799561,0.0319641,
8510,-0.00488281,0.0319153,
8512,0.0634766,0.0324646,
8514,0.0396729,0.032843,
8516,-0.0488281,0.0329407,
8518,0.0311279,0.0332092,
8520,0.0469971,0.0330383,
8522,-0.0628662,0.0334473,
8524,-0.065918,0.0333374,
8526,0.105591,0.0334473,
8528,-0.0848389,0.0338989,
8530,-0.0634766,0.0337952,
8532,-0.0231934,0.0338257,
8534,-0.00610352,0.0338562,
8536,-0.0115967,0.0339172,
8538,0.000610352,0.0338928,
8540,-0.055542,0.0335937,
8542,-0.00915527,0.033606,
8544,0.0268555,0.0338135,
8546,-0.0250244,0.0340027,
8548,0.0201416,0.0337585,
8550,-0.0164795,0.0337158,
8552,0.0183105,0.0338684,
8554,0.0146484,0.0339172,
8556,-0.0305176,0.034198,
8558,0.000610352,0.0341125,
8560,0.0238037,0.0343506,
8562,0.00915527,0.0342712,
8564,0.0256348,0.0343445,
8566,-0.0195313,0.0342651,
8568,0.0201416,0.0344116,
8570,0.0354004,0.0344849,
8572,0.0384521,0.0348572,
8574,-0.088501,0.0354492,
8576,0.0738525,0.0361511,
8578,0.0720215,0.0363464,
8580,-0.0616455,0.0367493,
8582,-0.043335,0.037146,
8584,0.0305176,0.0371155,
8586,-0.010376,0.0367676,
8588,0.012207,0.0368225,
8590,-0.0567627,0.036969,
8592,-0.00732422,0.0362671,
8594,0.00976563,0.0358704,
8596,-0.0268555,0.0360291,
8598,-0.0158691,0.0358948,
8600,-0.0164795,0.0355591,
8602,0.0274658,0.03573,
8604,0.0305176,0.0356873,
8606,-0.0280762,0.035022,
8608,0.0726318,0.0354187,
8610,0.0146484,0.0355408,
8612,-0.0231934,0.0356079,
8614,0.0445557,0.0357117,
8616,0.00244141,0.0354065,
8618,0.0274658,0.035437,
8620,-0.0360107,0.0355835,
8622,0.00610352,0.0355469,
8624,-0.0390625,0.035614,
8626,-0.010376,0.0353516,
8628,0.0231934,0.0351868,
8630,-0.0244141,0.0351135,
8632,0.00793457,0.0350159,
8634,-0.00549316,0.0348389,
8636,-0.00610352,0.0348145,
8638,-0.00305176,0.0347595,
8640,-0.0500488,0.034967,
8642,0.012207,0.0348267,
8644,0.0469971,0.0340454,
8646,-0.0671387,0.0339172,
8648,0.00427246,0.0335571,
8650,-0.0421143,0.033606,
8652,0.0592041,0.0338013,
8654,-0.00793457,0.0337891,
8656,-0.067749,0.0341064,
8658,0.0201416,0.0338806,
8660,0.03479,0.034198,
8662,-0.00671387,0.0336243,
8664,0.0219727,0.0329102,
8666,-0.0372314,0.0316895,
8668,-0.0164795,0.0315552,
8670,0.0506592,0.0312378,
8672,-0.0140381,0.0309448,
8674,-0.0701904,0.0311707,
8676,0.00183105,0.0310608,
8678,0.020752,0.0312134,
8680,-0.0488281,0.0312317,
8682,-0.00671387,0.0310486,
8684,-0.0152588,0.0310791,
8686,0.00732422,0.0309265,
8688,0.0280762,0.030957,
8690,-0.0201416,0.0306458,
8692,0.0128174,0.0306274,
8694,0.00427246,0.030249,
8696,-0.0244141,0.0302612,
8698,0.022583,0.0304321,
8700,-0.00366211,0.0303589,
8702,-0.00610352,0.0299927,
8704,-0.00366211,0.0297546,
8706,-0.055542,0.0299866,
8708,-0.00366211,0.0292236,
8710,0.0286865,0.0294617,
8712,0.010376,0.0289307,
8714,-0.00854492,0.0286194,
8716,-0.0775146,0.0289063,
8718,0.0109863,0.0287048,
8720,0.0177002,0.0284119,
8722,0.0140381,0.0279236,
8724,-0.0927734,0.0281921,
8726,0.020752,0.0273438,
8728,0.0262451,0.0267578,
8730,-0.043335,0.0265564,
8732,-0.0341797,0.0266663,
8734,0.0177002,0.0267822,
8736,0.0427246,0.0270935,
8738,-0.00183105,0.0271057,
8740,-0.0665283,0.0272156,
8742,0.0274658,0.0273987,
8744,0.0244141,0.0273743,
8746,0.0146484,0.0272705,
8748,-0.0244141,0.0273132,
8750,0.0341797,0.0274902,
8752,-0.0219727,0.0275269,
8754,-0.00549316,0.0274353,
8756,-0.0238037,0.0273682,
8758,0.0335693,0.0276978,
8760,0,0.0274597,
8762,-0.0537109,0.0279053,
8764,-0.000610352,0.027655,
8766,-0.0408936,0.0278687,
8768,0.00183105,0.0276855,
8770,-0.0146484,0.027478,
8772,-0.0152588,0.0272461,
8774,-0.0177002,0.0265381,
8776,-0.00793457,0.0258789,
8778,0.0238037,0.0253967,
8780,-0.0262451,0.0250427,
8782,-0.012207,0.0247314,
8784,-0.00549316,0.0244812,
8786,0.0286865,0.0246643,
8788,0.0445557,0.0249878,
8790,-0.0683594,0.0251038,
8792,0.0415039,0.0254456,
8794,0.00671387,0.025415,
8796,0,0.0251465,
8798,0.0231934,0.0252197,
8800,-0.0317383,0.0253723,
8802,0.0415039,0.0255127,
8804,-0.00854492,0.025293,
8806,-0.0384521,0.0253967,
8808,0.0213623,0.024884,
8810,0.0012207,0.0247498,
8812,0.00427246,0.0245605,
8814,0.00427246,0.0241577,
8816,-0.0292969,0.0244263,
8818,0.0274658,0.0244263,
8820,0.0421143,0.0244873,
8822,0.00549316,0.0244812,
8824,-0.0524902,0.0246155,
8826,0.0372314,0.024884,
8828,0.0360107,0.0250122,
8830,-0.0134277,0.0249023,
8832,-0.0262451,0.0250854,
8834,-0.0219727,0.0252502,
8836,0.0292969,0.0254822,
8838,-0.0360107,0.0258118,
8840,-0.0390625,0.0257019,
8842,-0.00549316,0.0256348,
8844,0.0109863,0.0252747,
8846,-0.0262451,0.0248657,
8848,0.0372314,0.0251953,
8850,-0.0689697,0.0254639,
8852,0.00549316,0.0249268,
8854,0.0311279,0.0251587,
8856,-0.0183105,0.0246643,
8858,-0.0189209,0.0246521,
8860,0.00793457,0.0243835,
8862,0.0146484,0.0244629,
8864,0.0152588,0.0243958,
8866,-0.0622559,0.024646,
8868,0.0360107,0.0248413,
