Stephany-A-Musc-ABC-L01
Gráfico creado el:2026-06-05 12:33:16.276
Registro en:2026-06-05 12:46:43.561
2 mseg/muestras
2 canales
EMG
mV
EMG Integrado
mV-sec
milliSec,CH1,CH40,
,275058 samples,275058 samples,
0,0.00488281,4.88281E-05,
2,-0.0128174,0.000177002,
4,-0.00793457,0.000256348,
6,-0.00488281,0.000305176,
8,-0.00549316,0.000360107,
10,-0.010376,0.000463867,
12,-0.0012207,0.000476074,
14,-0.00854492,0.000561523,
16,-0.00244141,0.000585937,
18,-0.00549316,0.000640869,
20,-0.00549316,0.000695801,
22,-0.00610352,0.000756836,
24,-0.010376,0.000860596,
26,-0.00427246,0.00090332,
28,-0.00427246,0.000946045,
30,-0.00610352,0.00100708,
32,-0.0109863,0.00111694,
34,0.00244141,0.00114136,
36,-0.00976563,0.00123901,
38,-0.00549316,0.00129395,
40,-0.00427246,0.00133667,
42,-0.010376,0.00144043,
44,0.00366211,0.00147705,
46,-0.00671387,0.00154419,
48,-0.0146484,0.00169067,
50,0.0012207,0.00170288,
52,0,0.00170288,
54,-0.00915527,0.00179443,
56,-0.00915527,0.00188599,
58,-0.00366211,0.00192261,
60,-0.00244141,0.00194702,
62,-0.00671387,0.00201416,
64,-0.00732422,0.0020874,
66,0,0.0020874,
68,-0.00915527,0.00217896,
70,-0.00366211,0.00221558,
72,-0.00305176,0.00224609,
74,-0.0128174,0.00237427,
76,-0.000610352,0.00238037,
78,0.0012207,0.00239258,
80,0,0.00239258,
82,-0.00305176,0.0024231,
84,-0.00610352,0.00248413,
86,-0.00671387,0.00255127,
88,0.00610352,0.0026123,
90,-0.00793457,0.00269165,
92,0.0146484,0.00283813,
94,0.00305176,0.00286865,
96,-0.020752,0.00307617,
98,-0.00732422,0.00314941,
100,0.00610352,0.00321045,
102,0,0.00321045,
104,-0.0183105,0.00339355,
106,-0.00793457,0.0034729,
108,-0.00671387,0.00354004,
110,-0.0140381,0.00368042,
112,0.00183105,0.00369873,
114,-0.020752,0.00390625,
116,-0.0158691,0.00406494,
118,0.0201416,0.00426636,
120,-0.00915527,0.00435791,
122,-0.0219727,0.00457764,
124,-0.00305176,0.00460815,
126,0.00183105,0.00462646,
128,-0.00793457,0.00470581,
130,-0.00244141,0.00473022,
132,-0.00244141,0.00475464,
134,-0.00976563,0.00485229,
136,-0.00732422,0.00492554,
138,-0.00976563,0.00502319,
140,-0.0012207,0.0050354,
142,-0.00854492,0.00512085,
144,-0.00610352,0.00518188,
146,-0.012207,0.00530396,
148,-0.00976563,0.00540161,
150,0.00610352,0.00546265,
152,-0.00610352,0.00552368,
154,-0.00610352,0.00558472,
156,0,0.00558472,
158,-0.00793457,0.00566406,
160,-0.00366211,0.00570068,
162,-0.00610352,0.00576172,
164,-0.00671387,0.00582886,
166,-0.00488281,0.00587769,
168,-0.00915527,0.00596924,
170,-0.00976563,0.00606689,
172,-0.00244141,0.00609131,
174,-0.0140381,0.00623169,
176,-0.00488281,0.00628052,
178,-0.00549316,0.00633545,
180,-0.010376,0.00643921,
182,-0.00610352,0.00650024,
184,-0.010376,0.006604,
186,-0.0158691,0.0067627,
188,-0.0152588,0.00691528,
190,0.00732422,0.00698853,
192,-0.012207,0.0071106,
194,-0.00549316,0.00716553,
196,-0.0012207,0.00717773,
198,0,0.00717773,
200,-0.00610352,0.00718994,
202,-0.00793457,0.00714111,
204,0.00244141,0.00708618,
206,-0.00915527,0.00712891,
208,-0.010376,0.00717773,
210,0.00183105,0.00709229,
212,-0.0152588,0.00723267,
214,-0.0189209,0.00733643,
216,0.0128174,0.00744019,
218,-0.00915527,0.00747681,
220,-0.010376,0.00752563,
222,0,0.0074646,
224,0,0.00736084,
226,-0.00854492,0.00740356,
228,-0.010376,0.0074646,
230,-0.00793457,0.00748291,
232,-0.00732422,0.00744629,
234,-0.00793457,0.00750122,
236,-0.0115967,0.00751953,
238,-0.00366211,0.00750122,
240,-0.00854492,0.00754395,
242,-0.010376,0.00754395,
244,-0.010376,0.00761108,
246,-0.00732422,0.00761719,
248,-0.00976563,0.00756836,
250,-0.00915527,0.00764771,
252,-0.012207,0.00776978,
254,-0.0140381,0.0078186,
256,-0.00549316,0.00778198,
258,-0.012207,0.00786743,
260,-0.00732422,0.00791626,
262,-0.00854492,0.00793457,
264,-0.00793457,0.00794067,
266,-0.00366211,0.00797729,
268,-0.012207,0.00800781,
270,-0.0134277,0.00810547,
272,-0.00488281,0.00812378,
274,-0.00305176,0.00802612,
276,-0.00427246,0.00806274,
278,-0.0170898,0.00822144,
280,-0.00549316,0.00827637,
282,-0.00915527,0.0083374,
284,-0.000610352,0.00828247,
286,-0.00793457,0.00829468,
288,-0.00671387,0.00830078,
290,-0.00976563,0.00831909,
292,-0.00488281,0.00822144,
294,0.00427246,0.00823364,
296,-0.010376,0.00812988,
298,-0.00305176,0.00808716,
300,-0.00427246,0.00806885,
302,-0.00915527,0.0081604,
304,-0.0183105,0.0081604,
306,-0.00915527,0.00817261,
308,0.00427246,0.00814819,
310,-0.0195313,0.00820313,
312,-0.00793457,0.00826416,
314,-0.00854492,0.00814209,
316,-0.00793457,0.00806274,
318,-0.00549316,0.00791626,
320,0.0152588,0.00797729,
322,-0.00427246,0.00780029,
324,-0.0268555,0.00803833,
326,-0.00366211,0.00805664,
328,-0.00427246,0.00802002,
330,-0.0201416,0.00819702,
332,-0.00549316,0.00822754,
334,-0.0170898,0.00830078,
336,-0.0109863,0.0083374,
338,-0.00915527,0.0083313,
340,-0.0158691,0.00847778,
342,-0.00488281,0.00844116,
344,-0.00671387,0.00844727,
346,-0.0115967,0.00844116,
348,-0.0115967,0.00845947,
350,-0.00793457,0.00847778,
352,-0.00854492,0.0085022,
354,-0.00976563,0.00853882,
356,-0.00549316,0.00859375,
358,-0.00976563,0.00861206,
360,-0.00610352,0.00863647,
362,-0.00305176,0.00860596,
364,-0.00366211,0.00857544,
366,-0.00610352,0.00858765,
368,-0.0012207,0.0085083,
370,-0.010376,0.0085144,
372,-0.00732422,0.00856323,
374,-0.00427246,0.00846558,
376,-0.00549316,0.00847168,
378,-0.010376,0.00852051,
380,-0.010376,0.00852051,
382,-0.00976563,0.00855713,
384,-0.0012207,0.00846558,
386,-0.00549316,0.00836182,
388,-0.0115967,0.0083252,
390,-0.00671387,0.00831909,
392,-0.00427246,0.00823975,
394,-0.00854492,0.00827026,
396,-0.00671387,0.0083252,
398,-0.00549316,0.00838013,
400,-0.00915527,0.00841064,
402,-0.00427246,0.00837402,
404,0.00427246,0.00839233,
406,-0.0213623,0.0085144,
408,0.00427246,0.00845337,
410,-0.00854492,0.00852051,
412,0,0.00836792,
414,-0.00427246,0.00822144,
416,-0.00244141,0.00811768,
418,-0.00732422,0.00809937,
420,0.000610352,0.00800171,
422,0.00488281,0.00805054,
424,-0.00976563,0.00814819,
426,-0.0109863,0.00817261,
428,-0.00610352,0.00812988,
430,-0.00488281,0.00809937,
432,-0.0134277,0.0081604,
434,-0.0128174,0.00820923,
436,-0.00488281,0.00814209,
438,-0.0164795,0.00827026,
440,-0.0109863,0.00829468,
442,-0.00976563,0.00828857,
444,0.0012207,0.00819702,
446,-0.00915527,0.00821533,
448,-0.0128174,0.00824585,
450,-0.00610352,0.00821533,
452,-0.00915527,0.00818481,
454,-0.00793457,0.00812378,
456,-0.00488281,0.00811768,
458,-0.0115967,0.00811157,
460,-0.0012207,0.00805054,
462,-0.00854492,0.00805054,
464,-0.00793457,0.00805054,
466,-0.00366211,0.00805054,
468,0.00183105,0.00794678,
470,-0.00854492,0.00789795,
472,0.0012207,0.00786133,
474,-0.00305176,0.00786133,
476,-0.00549316,0.00787354,
478,-0.00305176,0.00773315,
480,-0.00183105,0.00769653,
482,-0.00488281,0.00765381,
484,-0.00793457,0.00772705,
486,-0.00976563,0.00774536,
488,0.00366211,0.00771484,
490,0.00793457,0.00769653,
492,-0.0219727,0.00786743,
494,-0.00549316,0.00787964,
496,-0.00427246,0.0078186,
498,0.00610352,0.00784912,
500,-0.00427246,0.00784912,
502,-0.00793457,0.00783691,
504,-0.0128174,0.00778198,
506,-0.0012207,0.00770264,
508,-0.00427246,0.00770264,
510,-0.0012207,0.00751953,
512,-0.00488281,0.00748901,
514,-0.00305176,0.00743408,
516,-0.00305176,0.00738525,
518,-0.00366211,0.00736694,
520,-0.0146484,0.00736084,
522,-0.00366211,0.00735474,
524,-0.00793457,0.00716553,
526,-0.00854492,0.00721436,
528,-0.00671387,0.00723877,
530,-0.00488281,0.00708618,
532,-0.010376,0.00713501,
534,-0.00793457,0.00704346,
536,0,0.00693359,
538,-0.0109863,0.0069519,
540,0.00305176,0.00682373,
542,0.00244141,0.00679932,
544,0.00915527,0.00682373,
546,-0.0146484,0.00685425,
548,0.00183105,0.00675659,
550,0.00366211,0.00671387,
552,-0.00671387,0.00669556,
554,-0.00732422,0.00667114,
556,-0.00671387,0.00668335,
558,-0.0109863,0.00669556,
560,-0.000610352,0.00664063,
562,-0.00671387,0.00667725,
564,-0.00366211,0.00667725,
566,-0.000610352,0.00662231,
568,-0.00488281,0.00665894,
570,-0.000610352,0.00656128,
572,0.00183105,0.00650635,
574,0.000610352,0.00646973,
576,-0.00366211,0.00645142,
578,-0.00366211,0.00638428,
580,-0.00549316,0.00633545,
582,-0.00610352,0.00629883,
584,-0.00854492,0.00637207,
586,-0.00610352,0.00637817,
588,-0.00427246,0.00630493,
590,-0.00671387,0.00630493,
592,-0.00976563,0.00635986,
594,-0.0109863,0.00638428,
596,-0.00488281,0.00636597,
598,-0.0012207,0.00632324,
600,-0.00976563,0.00632935,
602,-0.00610352,0.00634766,
604,-0.00793457,0.00638428,
606,0.00183105,0.00618896,
608,-0.010376,0.00625,
610,-0.00610352,0.00622559,
612,0,0.00622559,
614,0.00366211,0.00621948,
616,0.00854492,0.00628052,
618,-0.00305176,0.00623779,
620,-0.00793457,0.00631104,
622,-0.000610352,0.00626831,
624,-0.00427246,0.00621338,
626,-0.00610352,0.00616455,
628,-0.00427246,0.00614624,
630,-0.0012207,0.00610962,
632,-0.0219727,0.00619507,
634,-0.0134277,0.00620117,
636,0.00244141,0.00617676,
638,0.00183105,0.00603027,
640,-0.00305176,0.00595093,
642,-0.0164795,0.00601807,
644,-0.0140381,0.00614624,
646,-0.00427246,0.00609741,
648,0.00183105,0.00598755,
650,-0.00854492,0.00601196,
652,0.010376,0.00602417,
654,-0.00793457,0.00602417,
656,-0.0244141,0.00621948,
658,-0.00366211,0.00614014,
660,0.00427246,0.00617065,
662,0.0012207,0.00609741,
664,-0.0201416,0.00621948,
666,-0.0177002,0.00635986,
668,-0.010376,0.00644531,
670,-0.010376,0.00646362,
672,-0.0109863,0.00656128,
674,-0.00549316,0.00658569,
676,-0.00732422,0.006604,
678,-0.00549316,0.00662842,
680,-0.0189209,0.00679932,
682,-0.00183105,0.0067688,
684,-0.00488281,0.00673828,
686,-0.0115967,0.00675659,
688,-0.00183105,0.00673828,
690,-0.00549316,0.00671387,
692,-0.00671387,0.00656128,
694,-0.00854492,0.0065918,
696,-0.012207,0.00667114,
698,-0.00610352,0.00667114,
700,-0.00854492,0.00671387,
702,-0.00671387,0.00670166,
704,-0.00244141,0.0065979,
706,-0.0152588,0.00673828,
708,-0.00671387,0.0067627,
710,-0.00549316,0.00680542,
712,-0.00610352,0.00681763,
714,-0.00427246,0.00682983,
716,-0.0152588,0.0069519,
718,-0.00549316,0.00697021,
720,-0.00183105,0.00684204,
722,-0.0140381,0.0069458,
724,-0.000610352,0.00687256,
726,-0.00305176,0.00681763,
728,-0.00366211,0.00678711,
730,-0.00549316,0.00679321,
732,0.00366211,0.00672607,
734,-0.00671387,0.00671387,
736,-0.000610352,0.00671997,
738,-0.00549316,0.00666504,
740,-0.00244141,0.00665894,
742,-0.0012207,0.00664673,
744,-0.000610352,0.00656128,
746,-0.0152588,0.00656738,
748,-0.00854492,0.00663452,
750,-0.00244141,0.00662231,
752,-0.00793457,0.00663452,
754,-0.0109863,0.00667114,
756,-0.00244141,0.00662842,
758,0.010376,0.00662231,
760,-0.0140381,0.00675659,
762,-0.00244141,0.00671387,
764,0.00610352,0.00673828,
766,0.00183105,0.00675049,
768,-0.00793457,0.00678101,
770,-0.0109863,0.00688477,
772,-0.00549316,0.00692139,
774,-0.00793457,0.00699463,
776,-0.0177002,0.00713501,
778,-0.0152588,0.00725098,
780,-0.00366211,0.00723267,
782,-0.00488281,0.00722046,
784,-0.00183105,0.00715332,
786,-0.00488281,0.00714111,
788,-0.0134277,0.00723267,
790,0.00549316,0.00722046,
792,-0.00183105,0.00714111,
794,-0.0115967,0.00714722,
796,0.0012207,0.0071106,
798,-0.0115967,0.00721436,
800,-0.00976563,0.00721436,
802,-0.000610352,0.00715942,
804,-0.00305176,0.0071106,
806,-0.00610352,0.00715332,
808,-0.00427246,0.00709229,
810,-0.00488281,0.00708008,
812,0.000610352,0.00708618,
814,-0.00305176,0.00708008,
816,-0.00488281,0.00704346,
818,-0.0012207,0.00702515,
820,-0.00793457,0.00702515,
822,-0.00732422,0.00709229,
824,-0.00488281,0.00709839,
826,-0.00305176,0.00706787,
828,-0.00366211,0.00706177,
830,-0.00915527,0.00714111,
832,-0.00732422,0.00699463,
834,-0.00549316,0.00691528,
836,-0.0012207,0.00690308,
838,0.00366211,0.00692139,
840,-0.000610352,0.00689697,
842,-0.00305176,0.0067627,
844,-0.00793457,0.00670166,
846,-0.0012207,0.00667114,
848,-0.00366211,0.00668945,
850,-0.00183105,0.00662231,
852,-0.00793457,0.0065979,
854,-0.00976563,0.00661621,
856,-0.00793457,0.00645142,
858,0.00305176,0.00644531,
860,-0.00671387,0.00646973,
862,0.000610352,0.00646362,
864,0.00732422,0.00633545,
866,-0.0109863,0.00626831,
868,-0.00915527,0.0062561,
870,-0.00610352,0.00621338,
872,0,0.00610352,
874,0.0012207,0.00606079,
876,-0.00976563,0.00608521,
878,-0.00854492,0.00611572,
880,-0.00732422,0.00599976,
882,-0.00610352,0.00604248,
884,0.00915527,0.00608521,
886,-0.00427246,0.00601196,
888,-0.00366211,0.00603027,
890,-0.00244141,0.00599976,
892,-0.00854492,0.00601807,
894,-0.00183105,0.00595093,
896,0.000610352,0.00583496,
898,-0.010376,0.00587769,
900,-0.00854492,0.00587769,
902,-0.00488281,0.00585938,
904,-0.00854492,0.00592041,
906,0,0.00576782,
908,0.00915527,0.00579224,
910,-0.012207,0.00585938,
912,-0.0109863,0.0059082,
914,-0.000610352,0.00587158,
916,-0.00244141,0.00574341,
918,-0.00732422,0.00576172,
920,-0.00976563,0.00584106,
922,-0.0109863,0.00581055,
924,-0.0146484,0.00595093,
926,-0.0152588,0.006073,
928,-0.00610352,0.00609741,
930,-0.00671387,0.00610962,
932,-0.00793457,0.00615234,
934,-0.00732422,0.00615845,
936,-0.00610352,0.00621338,
938,-0.00183105,0.00617676,
940,-0.00244141,0.00617676,
942,-0.00976563,0.00626221,
944,-0.00610352,0.00631714,
946,0.00732422,0.00623779,
948,-0.00305176,0.00618286,
950,-0.00793457,0.00623779,
952,-0.00305176,0.00618896,
954,-0.00549316,0.00613403,
956,0,0.00610962,
958,-0.00427246,0.00604858,
960,-0.00366211,0.00594482,
962,-0.00183105,0.00593872,
964,-0.00793457,0.00595703,
966,-0.00793457,0.00601807,
968,0.00244141,0.00596313,
970,-0.00732422,0.00592651,
972,-0.0109863,0.00598145,
974,-0.00549316,0.00595703,
976,0.00671387,0.00584717,
978,-0.0164795,0.00585938,
980,-0.00305176,0.00585327,
982,0.0012207,0.00581665,
984,-0.000610352,0.00580444,
986,0.00610352,0.00581665,
988,-0.00854492,0.00576782,
990,-0.00427246,0.00575562,
992,0.022583,0.00596313,
994,-0.0164795,0.00601196,
996,-0.0128174,0.00612793,
998,0.00488281,0.00606079,
1000,0.00488281,0.00601196,
1002,-0.010376,0.00610962,
1004,-0.012207,0.00620117,
1006,-0.00915527,0.00623169,
1008,0.00183105,0.00620728,
1010,-0.000610352,0.00616455,
1012,-0.00427246,0.00620117,
1014,-0.00305176,0.00620117,
1016,-0.00366211,0.00618896,
1018,-0.00366211,0.00621338,
1020,-0.00610352,0.00619507,
1022,0.00183105,0.00614014,
1024,-0.00854492,0.00617676,
1026,0.00366211,0.00618286,
1028,-0.00244141,0.00617065,
1030,-0.00305176,0.00610962,
1032,-0.000610352,0.00604248,
1034,-0.00610352,0.00604858,
1036,-0.00427246,0.0060791,
1038,0.00915527,0.00613403,
1040,-0.00305176,0.00615845,
1042,-0.00366211,0.00616455,
1044,-0.00793457,0.00616455,
1046,0,0.00615234,
1048,0,0.00611572,
1050,-0.00305176,0.00612793,
1052,-0.0115967,0.00616455,
1054,-0.00854492,0.00615234,
1056,0.00427246,0.00611572,
1058,-0.00366211,0.00612183,
1060,-0.00610352,0.00611572,
1062,-0.00366211,0.00614624,
1064,-0.00793457,0.00615234,
1066,0.0012207,0.00605469,
1068,-0.00488281,0.00601196,
1070,-0.00244141,0.00597534,
1072,-0.00610352,0.00603638,
1074,-0.00244141,0.00604858,
1076,0.000610352,0.00595703,
1078,-0.00549316,0.00592651,
1080,-0.0128174,0.00598145,
1082,0.00427246,0.00596313,
1084,-0.0012207,0.00588379,
1086,0.0012207,0.00585327,
1088,-0.00366211,0.00585327,
1090,-0.000610352,0.00583496,
1092,-0.00610352,0.00581055,
1094,-0.00732422,0.00586548,
1096,-0.00305176,0.00588989,
1098,-0.00976563,0.00588379,
1100,-0.00427246,0.00584106,
1102,-0.0109863,0.0059021,
1104,-0.0158691,0.00597534,
1106,0.00427246,0.00601807,
1108,0.012207,0.00604858,
1110,-0.00732422,0.00599976,
1112,-0.0134277,0.00602417,
1114,0.00427246,0.00606079,
1116,0.00427246,0.0060791,
1118,-0.00244141,0.00603027,
1120,-0.00793457,0.00601196,
1122,-0.00732422,0.00597534,
1124,-0.0152588,0.00598145,
1126,-0.00549316,0.00588379,
1128,-0.0152588,0.00597534,
1130,-0.00854492,0.00599365,
1132,-0.0012207,0.00592651,
1134,-0.00976563,0.00595093,
1136,-0.00976563,0.00598755,
1138,-0.00976563,0.00606689,
1140,0,0.00604248,
1142,0.000610352,0.00595093,
1144,-0.00915527,0.00598145,
1146,-0.00305176,0.00593872,
1148,-0.00732422,0.00598145,
1150,-0.00183105,0.00592041,
1152,-0.00549316,0.00594482,
1154,-0.0115967,0.00600586,
1156,-0.0115967,0.00612183,
1158,-0.00305176,0.00610962,
1160,-0.00732422,0.00614624,
1162,-0.00976563,0.00622559,
1164,-0.0012207,0.00615845,
1166,0.00244141,0.00610352,
1168,-0.00976563,0.00617676,
1170,-0.00427246,0.00614624,
1172,0.00183105,0.00605469,
1174,-0.00488281,0.00604858,
1176,-0.00610352,0.00604248,
1178,-0.00915527,0.00596924,
1180,-0.00854492,0.00602417,
1182,-0.00549316,0.00606689,
1184,-0.0115967,0.00617676,
1186,-0.00366211,0.00615234,
1188,-0.00305176,0.00609741,
1190,0.000610352,0.00606079,
1192,-0.0109863,0.00594482,
1194,-0.00549316,0.00583496,
1196,0.000610352,0.00571289,
1198,0.000610352,0.00567017,
1200,-0.00671387,0.00568848,
1202,-0.00915527,0.00567627,
1204,-0.0109863,0.00566406,
1206,0.0012207,0.00558472,
1208,-0.00671387,0.00563354,
1210,0.00854492,0.00571289,
1212,-0.0274658,0.00594482,
1214,-0.0231934,0.00614624,
1216,0.0109863,0.00621948,
1218,-0.00183105,0.00620117,
1220,-0.0213623,0.00635376,
1222,-0.00183105,0.00635376,
1224,-0.0146484,0.00641479,
1226,0.00427246,0.0064209,
1228,-0.00305176,0.006427,
1230,-0.0164795,0.00656128,
1232,0.00488281,0.006604,
1234,-0.00488281,0.0065918,
1236,-0.010376,0.00665283,
1238,-0.00915527,0.00665283,
1240,0,0.00662231,
1242,-0.0152588,0.00673828,
1244,-0.010376,0.0067627,
1246,-0.00366211,0.00679932,
1248,0,0.00679932,
1250,-0.010376,0.00687256,
1252,-0.00915527,0.00684814,
1254,-0.0115967,0.00687866,
1256,-0.0189209,0.00702515,
1258,-0.000610352,0.00699463,
1260,-0.0109863,0.00704346,
1262,-0.0109863,0.0071167,
1264,-0.00610352,0.00709839,
1266,-0.00366211,0.0071228,
1268,-0.00732422,0.00714722,
1270,0.00549316,0.00717773,
1272,0.00610352,0.00717773,
1274,0.00305176,0.00718384,
1276,-0.0238037,0.00741577,
1278,0.00915527,0.00745239,
1280,-0.00488281,0.00737305,
1282,-0.00976563,0.00742798,
1284,-0.0195313,0.00761108,
1286,-0.00854492,0.00768433,
1288,-0.00915527,0.00773926,
1290,-0.010376,0.00783691,
1292,-0.00915527,0.00786743,
1294,-0.00854492,0.00787964,
1296,-0.00366211,0.00788574,
1298,-0.00915527,0.00787964,
1300,0.0134277,0.00797119,
1302,-0.00488281,0.00791016,
1304,-0.0164795,0.00791626,
1306,-0.00915527,0.00796509,
1308,0.00427246,0.00788574,
1310,-0.000610352,0.0078186,
1312,-0.00915527,0.00777588,
1314,-0.0177002,0.00791016,
1316,0.00427246,0.00791016,
1318,-0.00793457,0.00796509,
1320,-0.00854492,0.00797119,
1322,-0.00915527,0.0079895,
1324,-0.00183105,0.00785522,
1326,-0.0012207,0.0078125,
1328,-0.0115967,0.00777588,
1330,-0.00671387,0.00775757,
1332,-0.00549316,0.00780029,
1334,-0.0012207,0.00771484,
1336,-0.00244141,0.0076416,
1338,0.00183105,0.00756226,
1340,-0.0158691,0.00772095,
1342,0.0012207,0.00772705,
1344,0.00305176,0.00766602,
1346,-0.00915527,0.00772705,
1348,-0.00183105,0.00767212,
1350,0.00671387,0.00772095,
1352,0.00732422,0.00773926,
1354,-0.0219727,0.00784302,
1356,-0.00549316,0.00778198,
1358,0.00610352,0.0078125,
1360,-0.00427246,0.00778198,
1362,-0.00732422,0.00775757,
1364,-0.020752,0.00795288,
1366,-0.00366211,0.00796509,
1368,-0.00549316,0.00792236,
1370,-0.00732422,0.00795288,
1372,-0.00854492,0.00802002,
1374,-0.00671387,0.00803833,
1376,-0.00610352,0.00803833,
1378,0.00183105,0.00796509,
1380,0.00427246,0.00792236,
1382,-0.00366211,0.00790405,
1384,-0.00976563,0.00788574,
1386,-0.00732422,0.00792236,
1388,0.00793457,0.00797119,
1390,-0.000610352,0.00797119,
1392,-0.00732422,0.00793457,
1394,-0.0164795,0.00804443,
1396,-0.000610352,0.00804443,
1398,-0.0109863,0.00814819,
1400,0.0158691,0.00823975,
1402,-0.0158691,0.00830688,
1404,-0.0158691,0.00835571,
1406,-0.00244141,0.00836792,
1408,0.00366211,0.0083374,
1410,-0.00671387,0.00831909,
1412,-0.0128174,0.00817261,
1414,-0.00915527,0.00803223,
1416,-0.00732422,0.00799561,
1418,-0.0134277,0.00811157,
1420,-0.012207,0.00802002,
1422,-0.00427246,0.00804443,
1424,-0.0012207,0.00791016,
1426,-0.00976563,0.00796509,
1428,-0.00488281,0.0079834,
1430,-0.00488281,0.00786743,
1432,-0.00366211,0.00785522,
1434,0.00183105,0.00782471,
1436,-0.0012207,0.00773315,
1438,-0.00366211,0.00767822,
1440,-0.00427246,0.00772095,
1442,-0.0177002,0.00774536,
1444,0.00488281,0.00769043,
1446,-0.00244141,0.00767822,
1448,-0.0128174,0.0078064,
1450,-0.00366211,0.00773926,
1452,-0.00183105,0.00766602,
1454,-0.0134277,0.00768433,
1456,-0.000610352,0.00750122,
1458,0.000610352,0.00750122,
1460,-0.00183105,0.00740967,
1462,-0.00793457,0.00737915,
1464,-0.00183105,0.00733643,
1466,-0.0012207,0.00731201,
1468,-0.0012207,0.00725098,
1470,-0.00427246,0.00723877,
1472,-0.00793457,0.00725708,
1474,-0.00366211,0.00726318,
1476,-0.00427246,0.00706787,
1478,-0.00305176,0.00700684,
1480,-0.00183105,0.00697632,
1482,-0.00915527,0.00697021,
1484,-0.0109863,0.00688477,
1486,0.000610352,0.00680542,
1488,0.00244141,0.00673828,
1490,-0.0012207,0.00664673,
1492,-0.00183105,0.00657349,
1494,-0.00183105,0.00650635,
1496,0.000610352,0.00647583,
1498,0.000610352,0.00639038,
1500,-0.0140381,0.00639648,
1502,-0.00366211,0.00638428,
1504,-0.012207,0.00634155,
1506,-0.012207,0.00637207,
1508,-0.0134277,0.00646362,
1510,-0.0158691,0.00661621,
1512,-0.00854492,0.00661011,
1514,-0.00671387,0.00650024,
1516,-0.00427246,0.00650024,
1518,-0.00793457,0.00650024,
1520,-0.00305176,0.00644531,
1522,0.00366211,0.00639038,
1524,-0.00976563,0.00646973,
1526,-0.0012207,0.00646973,
1528,0.00610352,0.00641479,
1530,-0.00976563,0.00644531,
1532,0.00183105,0.00640869,
1534,-0.00793457,0.00647583,
1536,0.00305176,0.00648193,
1538,0.00366211,0.00650024,
1540,0.0012207,0.00635376,
1542,-0.00549316,0.00639648,
1544,-0.00366211,0.00640259,
1546,0.00305176,0.00634155,
1548,-0.00488281,0.00637207,
1550,-0.00549316,0.00635986,
1552,-0.00793457,0.00636597,
1554,0.00976563,0.0062439,
1556,-0.00610352,0.00625,
1558,-0.0189209,0.00637817,
1560,-0.00488281,0.00638428,
1562,0.0012207,0.00632324,
1564,0.00244141,0.00614014,
1566,-0.00305176,0.00613403,
1568,-0.00732422,0.00615234,
1570,-0.00732422,0.00615234,
1572,-0.00549316,0.00612183,
1574,-0.00244141,0.0060791,
1576,0.0012207,0.00603027,
1578,-0.00915527,0.00610352,
1580,-0.00793457,0.00614014,
1582,-0.00793457,0.00618286,
1584,-0.00610352,0.00614624,
1586,-0.012207,0.00619507,
1588,0.00610352,0.00617676,
1590,-0.00366211,0.00620728,
1592,-0.00183105,0.00615234,
1594,-0.00244141,0.00601196,
1596,-0.00427246,0.00604858,
1598,-0.010376,0.00604248,
1600,0.00183105,0.0059021,
1602,-0.00244141,0.00576782,
1604,-0.00183105,0.00562744,
1606,-0.00915527,0.00569458,
1608,-0.00976563,0.00575562,
1610,0.00427246,0.0057312,
1612,0.0012207,0.00561523,
1614,-0.0012207,0.00553589,
1616,-0.00732422,0.00553589,
1618,-0.0134277,0.00553589,
1620,0,0.00541382,
1622,0.00671387,0.00543823,
1624,-0.0158691,0.00558472,
1626,-0.00488281,0.00553589,
1628,-0.00366211,0.00552368,
1630,-0.00488281,0.00552368,
1632,-0.00732422,0.0055603,
1634,-0.00366211,0.00557861,
1636,0.00488281,0.00561523,
1638,-0.00427246,0.00562134,
1640,-0.00244141,0.00560303,
1642,-0.00793457,0.00550537,
1644,0.00244141,0.00548096,
1646,-0.00427246,0.00549927,
1648,-0.00427246,0.00541382,
1650,-0.00793457,0.00545654,
1652,0.00305176,0.00546875,
1654,0.00244141,0.00535889,
1656,-0.012207,0.00547485,
1658,-0.0128174,0.00559692,
1660,-0.00183105,0.00559692,
1662,-0.00244141,0.00554199,
1664,0.00183105,0.00554199,
1666,-0.00793457,0.00560913,
1668,-0.0109863,0.00570679,
1670,-0.00854492,0.00574951,
1672,-0.0012207,0.00568237,
1674,-0.00671387,0.00571289,
1676,-0.0012207,0.00568237,
1678,-0.00610352,0.00571289,
1680,-0.00488281,0.00574341,
1682,-0.00549316,0.00570679,
1684,-0.00549316,0.00565186,
1686,-0.00244141,0.00567017,
1688,-0.00305176,0.00567627,
1690,0.00366211,0.00570068,
1692,-0.00915527,0.00577393,
1694,-0.00732422,0.00582886,
1696,-0.00183105,0.00584106,
1698,-0.00732422,0.0059082,
1700,0.00854492,0.00585327,
1702,-0.0128174,0.00594482,
1704,-0.0140381,0.00596313,
1706,0.00183105,0.00585938,
1708,-0.00732422,0.00579834,
1710,0.000610352,0.00564575,
1712,-0.00976563,0.00565796,
1714,-0.010376,0.00569458,
1716,0.00366211,0.00568848,
1718,-0.00732422,0.00568237,
1720,-0.00793457,0.0057312,
1722,0.00305176,0.0057251,
1724,-0.00305176,0.00565796,
1726,-0.0012207,0.00565796,
1728,-0.00915527,0.00568848,
1730,-0.000610352,0.00559692,
1732,0.00366211,0.00561523,
1734,-0.00671387,0.00560303,
1736,-0.00305176,0.00560303,
1738,-0.00976563,0.00566406,
1740,-0.0012207,0.00566406,
1742,0,0.00560913,
1744,-0.00610352,0.00563354,
1746,-0.00793457,0.00568237,
1748,0.00427246,0.00567627,
1750,0.0012207,0.00563354,
1752,-0.00183105,0.00557251,
1754,-0.0146484,0.00562134,
1756,-0.00427246,0.00560303,
1758,-0.00366211,0.00545044,
1760,-0.0238037,0.00563965,
1762,-0.00366211,0.00566406,
1764,-0.0134277,0.00577393,
1766,-0.00244141,0.00576782,
1768,-0.0109863,0.00580444,
1770,-0.00976563,0.00582886,
1772,-0.00183105,0.00579224,
1774,-0.0012207,0.00578003,
1776,-0.000610352,0.00577393,
1778,-0.00427246,0.0057251,
1780,0.020752,0.00585327,
1782,-0.0195313,0.00596924,
1784,-0.0158691,0.00606689,
1786,0.00183105,0.00596313,
1788,-0.00488281,0.00595093,
1790,-0.00488281,0.00596313,
1792,-0.0134277,0.0060791,
1794,-0.010376,0.00615845,
1796,-0.00915527,0.00620728,
1798,-0.00427246,0.00614624,
1800,-0.00671387,0.00619507,
1802,-0.0170898,0.00634155,
1804,-0.00732422,0.00639648,
1806,0.00244141,0.00632935,
1808,-0.0183105,0.00641479,
1810,-0.00610352,0.00643311,
1812,-0.00183105,0.00643921,
1814,-0.00366211,0.00646362,
1816,-0.00305176,0.0064209,
1818,-0.00488281,0.00633545,
1820,0.00488281,0.00638428,
1822,-0.0012207,0.00632935,
1824,-0.00305176,0.00620117,
1826,0.000610352,0.00615845,
1828,-0.00610352,0.00618286,
1830,-0.00305176,0.00616455,
1832,-0.00610352,0.00615234,
1834,0.0012207,0.00612793,
1836,0.00366211,0.00611572,
1838,-0.00732422,0.00614624,
1840,-0.00244141,0.00614624,
1842,-0.00976563,0.00616455,
1844,0.00244141,0.00616455,
1846,-0.00244141,0.00614624,
1848,-0.020752,0.00631104,
1850,-0.000610352,0.00623779,
1852,-0.00915527,0.00629883,
1854,-0.00732422,0.00634766,
1856,-0.00244141,0.00625,
1858,-0.0134277,0.0062561,
1860,-0.00976563,0.00633545,
1862,-0.012207,0.00643311,
1864,-0.0128174,0.00654297,
1866,-0.00610352,0.00652466,
1868,-0.00549316,0.00646973,
1870,-0.0134277,0.00651855,
1872,-0.00305176,0.00653687,
1874,-0.00488281,0.00651855,
1876,0.00549316,0.00656128,
1878,0.0012207,0.00651245,
1880,0.00244141,0.00648804,
1882,0.00915527,0.00652466,
1884,-0.00915527,0.00656128,
1886,0.000610352,0.00654297,
1888,0,0.00651245,
1890,-0.00549316,0.00653076,
1892,-0.00915527,0.00653076,
1894,-0.00793457,0.00653687,
1896,-0.00549316,0.00657349,
1898,-0.00488281,0.00654907,
1900,-0.00183105,0.00648193,
1902,0.00183105,0.00637207,
1904,-0.0134277,0.00636597,
1906,-0.00671387,0.00641479,
1908,-0.00183105,0.00635986,
1910,-0.00244141,0.00637817,
1912,-0.00915527,0.00637207,
1914,-0.0134277,0.00640259,
1916,-0.00854492,0.00645142,
1918,0.00366211,0.00641479,
1920,-0.00549316,0.00639038,
1922,-0.0164795,0.00652466,
1924,0.000610352,0.00650024,
1926,0.00366211,0.00652466,
1928,0,0.00643311,
1930,-0.00183105,0.00644531,
1932,-0.00976563,0.00650635,
1934,-0.0115967,0.00655518,
1936,-0.00366211,0.00656128,
1938,0.00305176,0.00649414,
1940,-0.00305176,0.00651245,
1942,-0.010376,0.00661621,
1944,-0.00488281,0.006604,
1946,0.00427246,0.00656738,
1948,0.00305176,0.00655518,
1950,0.00671387,0.00661011,
1952,-0.00183105,0.00661011,
1954,-0.00732422,0.00653687,
1956,-0.00244141,0.00651855,
1958,-0.00549316,0.00653687,
1960,-0.00732422,0.00637207,
1962,-0.0134277,0.00646973,
1964,-0.0146484,0.00648193,
1966,-0.0012207,0.00646973,
1968,-0.0109863,0.00646973,
1970,-0.0140381,0.00651245,
1972,0.000610352,0.00650024,
1974,-0.00305176,0.00651855,
1976,-0.00549316,0.00656738,
1978,0.0238037,0.0067627,
1980,-0.0109863,0.00666504,
1982,-0.00671387,0.00653687,
1984,-0.00915527,0.00646973,
1986,0.00610352,0.00651245,
1988,0,0.00646362,
1990,-0.00610352,0.00647583,
1992,-0.00793457,0.0064209,
1994,-0.0109863,0.006427,
1996,-0.0128174,0.00646362,
1998,-0.00488281,0.00646973,
2000,0.0109863,0.00651245,
2002,-0.010376,0.00644531,
2004,-0.020752,0.00657959,
2006,0.00549316,0.00661011,
2008,-0.00244141,0.00645142,
2010,-0.0152588,0.00654297,
2012,0.00305176,0.00655518,
2014,-0.00793457,0.0065979,
2016,0.00427246,0.00661011,
2018,-0.0128174,0.00668945,
2020,0,0.00664063,
2022,0.00366211,0.00666504,
2024,-0.00671387,0.00670166,
2026,0.000610352,0.00670166,
2028,0.000610352,0.00664673,
2030,-0.00732422,0.00668945,
2032,-0.00183105,0.00664673,
2034,-0.00793457,0.00671387,
2036,0.0012207,0.00668945,
2038,-0.00305176,0.00664673,
2040,-0.00427246,0.00666504,
2042,-0.0012207,0.00657959,
2044,-0.010376,0.00665894,
2046,-0.00732422,0.00670776,
2048,0.010376,0.006604,
2050,-0.00549316,0.00665283,
2052,-0.00244141,0.00658569,
2054,-0.00488281,0.00656128,
2056,-0.00854492,0.00662231,
2058,0.00488281,0.00653687,
2060,0.00244141,0.00646362,
2062,0.00427246,0.00638428,
2064,-0.0134277,0.00639038,
2066,-0.0146484,0.00647583,
2068,0.00427246,0.00646362,
2070,0.0177002,0.00650635,
2072,-0.0140381,0.00661621,
2074,-0.00732422,0.00664063,
2076,0.00366211,0.00662231,
2078,-0.00183105,0.00662842,
2080,-0.010376,0.00670776,
2082,-0.00671387,0.00668335,
2084,-0.00732422,0.00666504,
2086,-0.00976563,0.00675659,
2088,-0.00305176,0.00678711,
2090,-0.00427246,0.0067749,
2092,-0.0201416,0.00688477,
2094,-0.00549316,0.00686035,
2096,0.000610352,0.00681152,
2098,-0.00610352,0.00682373,
2100,-0.00793457,0.00688477,
2102,-0.00671387,0.00693359,
2104,-0.0158691,0.00695801,
2106,-0.00183105,0.00690918,
2108,-0.0140381,0.00703125,
2110,-0.0109863,0.0071167,
2112,-0.00244141,0.00704956,
2114,-0.00549316,0.00697021,
2116,0.00427246,0.00692749,
2118,-0.00671387,0.00695801,
2120,-0.00610352,0.00696411,
2122,-0.0012207,0.00681152,
2124,0.000610352,0.00681152,
2126,-0.00183105,0.00679321,
2128,-0.0012207,0.00680542,
2130,-0.00732422,0.00686035,
2132,0.00610352,0.00682373,
2134,-0.00305176,0.00673828,
2136,-0.00793457,0.00678101,
2138,-0.00366211,0.00678711,
2140,-0.00793457,0.00683594,
2142,-0.00427246,0.0067749,
2144,-0.00427246,0.0067688,
2146,-0.0158691,0.00688477,
2148,-0.00488281,0.00690308,
2150,-0.000610352,0.00684204,
2152,-0.0128174,0.0069519,
2154,-0.00244141,0.00690308,
2156,-0.00366211,0.00691528,
2158,-0.0109863,0.00697021,
2160,0.00244141,0.00692139,
2162,-0.000610352,0.00679321,
2164,-0.0012207,0.00665894,
2166,-0.00366211,0.00668335,
2168,-0.000610352,0.00657959,
2170,-0.00915527,0.00653076,
2172,-0.0012207,0.00653687,
2174,-0.00854492,0.0065918,
2176,-0.00244141,0.00656128,
2178,-0.00427246,0.00636597,
2180,-0.00976563,0.00635376,
2182,0.00305176,0.00631714,
2184,-0.00549316,0.00628052,
2186,-0.0115967,0.00633545,
2188,0,0.00633545,
2190,0.000610352,0.00628052,
2192,-0.0164795,0.00636597,
2194,0.00427246,0.00629883,
2196,-0.0256348,0.006427,
2198,-0.0109863,0.00648804,
2200,0.00610352,0.00643921,
2202,-0.0146484,0.00648193,
2204,0.00183105,0.00629272,
2206,0.00244141,0.00626221,
2208,-0.00244141,0.00626221,
2210,0.00305176,0.00614014,
2212,-0.00183105,0.00612793,
2214,-0.00488281,0.00609741,
2216,-0.00366211,0.00609131,
2218,-0.00610352,0.00602417,
2220,-0.00793457,0.00610352,
2222,-0.00732422,0.00614014,
2224,-0.00610352,0.00613403,
2226,-0.00427246,0.00617065,
2228,-0.00488281,0.00621338,
2230,0,0.00614014,
2232,-0.00732422,0.00619507,
2234,-0.00610352,0.00617676,
2236,0.00244141,0.00618896,
2238,0.00183105,0.00617676,
2240,-0.00976563,0.00623169,
2242,-0.00793457,0.00629883,
2244,0,0.00619507,
2246,0.000610352,0.00612793,
2248,-0.0109863,0.00613403,
2250,-0.00549316,0.00613403,
2252,-0.00732422,0.00618286,
2254,0.0012207,0.00614624,
2256,-0.00427246,0.00610352,
2258,-0.0128174,0.00618286,
2260,-0.00305176,0.00618896,
2262,-0.00488281,0.00619507,
2264,0.00549316,0.00611572,
2266,-0.00183105,0.00598755,
2268,-0.00915527,0.00603638,
2270,-0.00549316,0.00591431,
2272,0.00183105,0.00579224,
2274,0.00244141,0.00574341,
2276,0.00366211,0.00574341,
2278,0.00549316,0.00578003,
2280,-0.0152588,0.00582886,
2282,-0.0115967,0.00587769,
2284,0.00671387,0.00587158,
2286,-0.0128174,0.0059021,
2288,-0.012207,0.00599365,
2290,-0.0158691,0.00610962,
2292,-0.0140381,0.00604858,
2294,-0.000610352,0.00599976,
2296,-0.0115967,0.00610962,
2298,-0.0170898,0.00621948,
2300,-0.00183105,0.00615845,
2302,-0.00183105,0.00610962,
2304,-0.00244141,0.00597534,
2306,-0.0115967,0.006073,
2308,-0.00976563,0.00603027,
2310,-0.00549316,0.00597534,
2312,-0.00610352,0.00601196,
2314,-0.00793457,0.00603638,
2316,0.00183105,0.00601196,
2318,-0.0012207,0.00595703,
2320,0,0.005896,
2322,-0.00549316,0.00593872,
2324,-0.0115967,0.00604858,
2326,0.00366211,0.00606689,
2328,0.00366211,0.00609131,
2330,-0.00793457,0.00609741,
2332,-0.0274658,0.00631104,
2334,0.00366211,0.00631714,
2336,-0.00488281,0.00628662,
2338,-0.0012207,0.00626221,
2340,-0.00976563,0.00628052,
2342,0,0.00623779,
2344,-0.0134277,0.00632935,
2346,0.00427246,0.00621338,
2348,-0.00244141,0.00618896,
2350,-0.00244141,0.00620728,
2352,-0.00366211,0.00611572,
2354,-0.00854492,0.00617676,
2356,-0.00305176,0.00617065,
2358,-0.00549316,0.00611572,
2360,0,0.00609131,
2362,-0.00732422,0.00615845,
2364,-0.00549316,0.00620117,
2366,-0.000610352,0.00617065,
2368,-0.0109863,0.00627441,
2370,-0.00671387,0.00625,
2372,0.0244141,0.00648193,
2374,-0.00183105,0.00641479,
2376,-0.0134277,0.00652466,
2378,0,0.00648193,
2380,0.010376,0.00648804,
2382,-0.00854492,0.00654297,
2384,-0.00244141,0.00651245,
2386,-0.00549316,0.00645142,
2388,-0.00793457,0.00653076,
2390,-0.00610352,0.00658569,
2392,-0.00854492,0.00650635,
2394,-0.0109863,0.00657349,
2396,-0.010376,0.0064209,
2398,-0.00427246,0.00635376,
2400,-0.00793457,0.00637207,
2402,-0.0177002,0.00640259,
2404,-0.0140381,0.00652466,
2406,-0.00793457,0.00657959,
2408,-0.00488281,0.006604,
2410,-0.00671387,0.00664063,
2412,-0.00183105,0.00664063,
2414,0.00671387,0.00665894,
2416,-0.00976563,0.00671997,
2418,0.0183105,0.00684204,
2420,-0.00183105,0.00678101,
2422,0.00244141,0.00673218,
2424,-0.00732422,0.00674438,
2426,0.000610352,0.00670776,
2428,-0.00183105,0.00667725,
2430,-0.0128174,0.00680542,
2432,-0.0158691,0.00689087,
2434,0.00183105,0.00684814,
2436,-0.00915527,0.00691528,
2438,-0.00671387,0.00696411,
2440,-0.00366211,0.00690308,
2442,-0.00488281,0.00687256,
2444,0.00244141,0.00689697,
2446,0.00305176,0.00692139,
2448,-0.00488281,0.00686035,
2450,-0.00244141,0.00682983,
2452,-0.0012207,0.0067688,
2454,-0.00244141,0.00678101,
2456,-0.00427246,0.00678101,
2458,-0.00915527,0.00674438,
2460,-0.00183105,0.00673218,
2462,-0.0115967,0.00679932,
2464,-0.00915527,0.00683594,
2466,-0.00854492,0.00690308,
2468,-0.000610352,0.00681763,
2470,0.00671387,0.00682983,
2472,-0.0231934,0.00704346,
2474,-0.00793457,0.00709839,
2476,-0.00244141,0.00708618,
2478,-0.00488281,0.00708008,
2480,-0.00976563,0.00702515,
2482,-0.0128174,0.00703735,
2484,-0.00610352,0.00703125,
2486,-0.000610352,0.00690918,
2488,-0.012207,0.00690918,
2490,-0.00732422,0.00682373,
2492,0.0012207,0.00669556,
2494,-0.00671387,0.00675659,
2496,-0.00610352,0.00670166,
2498,-0.0177002,0.00670776,
2500,0.0140381,0.00682983,
2502,-0.00854492,0.00689697,
2504,-0.0164795,0.00703735,
2506,0.00549316,0.00697632,
2508,0.00244141,0.00690308,
2510,-0.010376,0.0069519,
2512,0.010376,0.00699463,
2514,0.0012207,0.00692749,
2516,0.00549316,0.00696411,
2518,-0.00610352,0.00701294,
2520,-0.00610352,0.00707397,
2522,0,0.00701904,
2524,-0.00549316,0.00695801,
2526,-0.00976563,0.00701904,
2528,0,0.00698242,
2530,-0.0152588,0.00705566,
2532,-0.0158691,0.0069397,
2534,-0.00915527,0.00699463,
2536,-0.00671387,0.00701294,
2538,-0.0012207,0.00701294,
2540,-0.0158691,0.00707397,
2542,-0.00366211,0.0071106,
2544,-0.00488281,0.00702515,
2546,-0.00732422,0.00705566,
2548,-0.00427246,0.00707397,
2550,-0.00671387,0.0071167,
2552,0.012207,0.00720215,
2554,-0.00732422,0.00718994,
2556,-0.0177002,0.00733643,
2558,0.00305176,0.00731201,
2560,0.00488281,0.00736084,
2562,-0.00549316,0.00734253,
2564,-0.00671387,0.00735474,
2566,-0.000610352,0.00735474,
2568,-0.0158691,0.00740356,
2570,-0.010376,0.00744019,
2572,-0.00305176,0.00722656,
2574,-0.00793457,0.0072876,
2576,-0.00854492,0.00723877,
2578,-0.00183105,0.00725708,
2580,-0.010376,0.00725708,
2582,-0.00793457,0.00725098,
2584,-0.00305176,0.00725708,
2586,0.00183105,0.00722046,
2588,-0.00671387,0.00720825,
2590,0.00305176,0.00717773,
2592,-0.00549316,0.00714722,
2594,0.000610352,0.00704346,
2596,0.0183105,0.0071228,
2598,-0.00854492,0.00716553,
2600,0.0170898,0.00725708,
2602,0.0189209,0.00726929,
2604,-0.0146484,0.00727539,
2606,-0.00732422,0.00726929,
2608,-0.00183105,0.00723877,
2610,0.000610352,0.00717773,
2612,-0.0152588,0.00731201,
2614,-0.0164795,0.00740967,
2616,-0.0134277,0.00744629,
2618,-0.0152588,0.00741577,
2620,-0.00305176,0.00742798,
2622,-0.00549316,0.0074585,
2624,-0.0140381,0.00752563,
2626,-0.00427246,0.00756226,
2628,0.00244141,0.00756836,
2630,-0.00610352,0.00750122,
2632,-0.00976563,0.00744019,
2634,-0.0115967,0.00753784,
2636,0.0158691,0.00760498,
2638,-0.00610352,0.00759888,
2640,-0.0140381,0.00770264,
2642,-0.00244141,0.00767822,
2644,0.00549316,0.00770874,
2646,-0.00854492,0.00776367,
2648,-0.00366211,0.00775146,
2650,-0.00671387,0.00779419,
2652,-0.00976563,0.00787964,
2654,-0.0109863,0.00796509,
2656,0.00732422,0.00799561,
2658,-0.0164795,0.00806885,
2660,-0.00549316,0.00810547,
2662,-0.00854492,0.00807495,
2664,0.00671387,0.00805054,
2666,0,0.00796509,
2668,-0.012207,0.00808105,
2670,-0.00671387,0.00808105,
2672,-0.00671387,0.00791626,
2674,0.0012207,0.00784912,
2676,-0.00305176,0.00785522,
2678,-0.00427246,0.00784912,
2680,-0.00610352,0.0078125,
2682,-0.00915527,0.00777588,
2684,-0.0134277,0.00784912,
2686,0.000610352,0.00784912,
2688,0.0012207,0.00773926,
2690,-0.00305176,0.00769653,
2692,-0.012207,0.0078064,
2694,-0.00793457,0.0078186,
2696,-0.00549316,0.0078125,
2698,0.000610352,0.0076416,
2700,-0.00671387,0.00756836,
2702,-0.00183105,0.00750122,
2704,0,0.00733643,
2706,0.00244141,0.00730591,
2708,-0.000610352,0.0072876,
2710,-0.00976563,0.00728149,
2712,0.0109863,0.0072876,
2714,0.00183105,0.0072937,
2716,-0.00549316,0.0072937,
2718,-0.000610352,0.00723877,
2720,-0.0134277,0.00731201,
2722,-0.0250244,0.00756226,
2724,0.0244141,0.00775146,
2726,-0.00671387,0.00772095,
2728,-0.0256348,0.00797729,
2730,-0.00488281,0.00787354,
2732,0.0012207,0.00772705,
2734,0.00244141,0.00765991,
2736,0.0012207,0.00760498,
2738,0.00488281,0.0076416,
2740,-0.00549316,0.00753784,
2742,-0.0195313,0.00769653,
2744,0.00244141,0.00767212,
2746,0.000610352,0.00760498,
2748,-0.0152588,0.00771484,
2750,-0.0152588,0.00780029,
2752,-0.0164795,0.00784302,
2754,-0.00610352,0.00783081,
2756,-0.00671387,0.00772095,
2758,-0.00549316,0.00774536,
2760,-0.00366211,0.00773315,
2762,-0.00488281,0.00772705,
2764,-0.00305176,0.00769043,
2766,-0.00610352,0.00774536,
2768,0.000610352,0.00759277,
2770,0,0.00748901,
2772,-0.00915527,0.00755005,
2774,-0.00244141,0.00749512,
2776,-0.00244141,0.00743408,
2778,0.00183105,0.00743408,
2780,0,0.00733032,
2782,-0.00183105,0.00726929,
2784,-0.0152588,0.00739136,
2786,-0.00244141,0.00739746,
2788,0.0158691,0.00748901,
2790,-0.0109863,0.00756836,
2792,0,0.00751343,
2794,-0.00366211,0.00754395,
2796,0,0.00736084,
2798,0.00427246,0.00731812,
2800,-0.00366211,0.00718384,
2802,-0.00549316,0.00704956,
2804,-0.00915527,0.00699463,
2806,-0.00488281,0.00697021,
2808,-0.00305176,0.00698242,
2810,-0.010376,0.00708008,
2812,-0.00305176,0.00695801,
2814,0.000610352,0.00679932,
2816,0.00488281,0.00671387,
2818,0.00488281,0.00661011,
2820,-0.00732422,0.00665283,
2822,0.0012207,0.00661011,
2824,0.022583,0.00669556,
2826,-0.00610352,0.00671387,
2828,-0.0128174,0.00681763,
2830,0.0012207,0.0067688,
2832,-0.0140381,0.00681152,
2834,0.00366211,0.00673218,
2836,-0.00854492,0.00665894,
2838,-0.0134277,0.00673218,
2840,0.00976563,0.00668945,
2842,-0.00976563,0.0067627,
2844,-0.00976563,0.00680542,
2846,-0.0195313,0.00691528,
2848,0.010376,0.00698242,
2850,-0.000610352,0.00692139,
2852,-0.0140381,0.00696411,
2854,-0.00732422,0.00692749,
2856,-0.00244141,0.00687866,
2858,-0.00854492,0.00679932,
2860,-0.0012207,0.00675659,
2862,0.0012207,0.00668335,
2864,0.0012207,0.00662842,
2866,0.0012207,0.00664063,
2868,-0.00854492,0.006604,
2870,-0.00305176,0.00656738,
2872,-0.00732422,0.00657349,
2874,-0.00427246,0.006604,
2876,-0.0128174,0.00670166,
2878,0.00488281,0.00670776,
2880,-0.012207,0.0067688,
2882,-0.00366211,0.00671387,
2884,0.00183105,0.0065979,
2886,0.00305176,0.00662231,
2888,0.00183105,0.00662842,
2890,-0.00549316,0.00665283,
2892,-0.00366211,0.00656738,
2894,0.00976563,0.00658569,
2896,-0.00915527,0.00662231,
2898,-0.00244141,0.00664063,
2900,-0.00488281,0.00662231,
2902,-0.00610352,0.00666504,
2904,-0.00366211,0.00670166,
2906,-0.00183105,0.00669556,
2908,0.00915527,0.00678101,
2910,0.00915527,0.0067749,
2912,-0.0164795,0.00682983,
2914,-0.00305176,0.00684204,
2916,0.00610352,0.00684814,
2918,0.00854492,0.00692749,
2920,-0.00915527,0.00688477,
2922,-0.0183105,0.00681763,
2924,0.00671387,0.00664063,
2926,-0.000610352,0.00657959,
2928,-0.0109863,0.00643311,
2930,-0.00610352,0.00644531,
2932,0.00366211,0.00646973,
2934,-0.00793457,0.00652466,
2936,-0.00183105,0.00653076,
2938,-0.00549316,0.00653687,
2940,-0.0195313,0.00667725,
2942,0.0109863,0.0065918,
2944,-0.00244141,0.0065918,
2946,-0.0146484,0.00673218,
2948,0.00427246,0.00662231,
2950,-0.00183105,0.00648804,
2952,-0.0134277,0.00645752,
2954,0.00305176,0.006427,
2956,0.00488281,0.00640869,
2958,-0.0134277,0.00648804,
2960,-0.00732422,0.00652466,
2962,-0.00244141,0.00650024,
2964,0.00427246,0.00651245,
2966,0.00915527,0.00654297,
2968,-0.0183105,0.00671997,
2970,-0.0012207,0.00673218,
2972,-0.00244141,0.00666504,
2974,-0.0115967,0.00675659,
2976,0.0012207,0.00674438,
2978,-0.00854492,0.00681152,
2980,0.000610352,0.00681763,
2982,-0.00976563,0.00689697,
2984,-0.00976563,0.00684204,
2986,-0.00244141,0.00684204,
2988,0.00305176,0.00671387,
2990,-0.0012207,0.00661621,
2992,-0.010376,0.00671997,
2994,-0.00915527,0.0067749,
2996,-0.0134277,0.00690918,
2998,0.0012207,0.00687866,
3000,-0.00793457,0.00692139,
3002,-0.00976563,0.00696411,
3004,-0.00671387,0.0069397,
3006,0.00244141,0.00691528,
3008,-0.00854492,0.00697021,
3010,-0.00305176,0.00689697,
3012,-0.00183105,0.00688477,
3014,0.00793457,0.00695801,
3016,-0.00366211,0.0069458,
3018,-0.00244141,0.00692139,
3020,-0.0109863,0.00695801,
3022,0.00732422,0.00701904,
3024,0.00244141,0.00681763,
3026,-0.00549316,0.00681152,
3028,-0.00305176,0.00671387,
3030,-0.0177002,0.00687866,
3032,0.012207,0.00686035,
3034,-0.00366211,0.00686035,
3036,-0.0183105,0.00695801,
3038,-0.00183105,0.00684204,
3040,-0.00732422,0.00681763,
3042,0.00549316,0.0067749,
3044,-0.00549316,0.00673218,
3046,-0.00793457,0.00661621,
3048,0.000610352,0.00651855,
3050,-0.000610352,0.00651855,
3052,-0.00305176,0.00640869,
3054,-0.00793457,0.00641479,
3056,-0.00366211,0.006427,
3058,-0.00976563,0.00643921,
3060,0.00854492,0.00651245,
3062,-0.00183105,0.00651855,
3064,-0.00976563,0.006604,
3066,-0.00244141,0.00661621,
3068,0.00244141,0.00655518,
3070,-0.00488281,0.00657349,
3072,0,0.00650024,
3074,-0.00915527,0.00654907,
3076,0,0.0064209,
3078,-0.0109863,0.00648193,
3080,-0.00244141,0.00638428,
3082,0.0128174,0.00647583,
3084,-0.0134277,0.0065918,
3086,-0.0134277,0.00669556,
3088,0.00732422,0.00675049,
3090,-0.000610352,0.00670166,
3092,0,0.00666504,
3094,-0.00732422,0.00664063,
3096,-0.00976563,0.00664673,
3098,-0.0012207,0.00663452,
3100,-0.00793457,0.00666504,
3102,-0.00366211,0.00664063,
3104,0.0128174,0.00673218,
3106,-0.00671387,0.00678101,
3108,-0.0146484,0.00683594,
3110,-0.012207,0.00686646,
3112,-0.00244141,0.00672607,
3114,0.000610352,0.00670166,
3116,-0.000610352,0.00664673,
3118,-0.00854492,0.00664673,
3120,-0.0134277,0.00668945,
3122,0.0012207,0.00651855,
3124,-0.0115967,0.00656738,
3126,0.00244141,0.00658569,
3128,-0.012207,0.0065979,
3130,-0.00549316,0.0065918,
3132,-0.00549316,0.00661011,
3134,-0.012207,0.00665283,
3136,0.000610352,0.00664063,
3138,-0.0012207,0.0065979,
3140,0.00427246,0.00644531,
3142,-0.00976563,0.00643311,
3144,-0.00183105,0.006427,
3146,0.00305176,0.00631104,
3148,-0.00183105,0.00628662,
3150,-0.00244141,0.00629272,
3152,-0.0128174,0.00628662,
3154,-0.00610352,0.00631714,
3156,-0.00549316,0.00632324,
3158,-0.022583,0.00641479,
3160,0.0195313,0.00653687,
3162,-0.0109863,0.00662231,
3164,-0.0250244,0.00682983,
3166,-0.00183105,0.00675659,
3168,0.00244141,0.0065979,
3170,-0.012207,0.00670776,
3172,-0.00915527,0.0067749,
3174,-0.00488281,0.00670776,
3176,-0.00671387,0.0067627,
3178,-0.00488281,0.00672607,
3180,-0.00915527,0.00681152,
3182,-0.00305176,0.00674438,
3184,0.0012207,0.00665894,
3186,-0.00183105,0.00665283,
3188,-0.0115967,0.00673828,
3190,-0.00488281,0.0067749,
3192,0.00671387,0.00673828,
3194,-0.00610352,0.00670776,
3196,-0.0170898,0.00674438,
3198,0.00793457,0.00681152,
3200,0.00305176,0.0067627,
3202,-0.000610352,0.00667114,
3204,-0.00366211,0.00664063,
3206,-0.00244141,0.00664063,
3208,-0.00549316,0.00661011,
3210,0.0012207,0.0065918,
3212,-0.000610352,0.00657959,
3214,-0.00305176,0.00653076,
3216,-0.00732422,0.00656738,
3218,-0.00549316,0.0065979,
3220,0.0012207,0.00650024,
3222,-0.00488281,0.00647583,
3224,-0.00671387,0.00651855,
3226,0.00610352,0.00652466,
3228,0.00610352,0.00655518,
3230,-0.00915527,0.00646973,
3232,-0.0115967,0.00646362,
3234,0.00244141,0.00645142,
3236,0.00183105,0.00628662,
3238,-0.00915527,0.00635986,
3240,-0.010376,0.00639038,
3242,-0.012207,0.00645752,
3244,0.00610352,0.00646362,
3246,-0.00915527,0.00647583,
3248,-0.00976563,0.00656738,
3250,-0.000610352,0.00656738,
3252,0.00244141,0.00656128,
3254,0.00793457,0.00656128,
3256,-0.00366211,0.00656128,
3258,-0.0152588,0.00661621,
3260,0.00549316,0.00658569,
3262,0.000610352,0.00657349,
3264,-0.00549316,0.00653076,
3266,-0.00183105,0.00652466,
3268,-0.012207,0.00662231,
3270,-0.00976563,0.00667114,
3272,0.0012207,0.00668335,
3274,-0.00305176,0.00662231,
3276,-0.00854492,0.00670776,
3278,-0.00488281,0.00664673,
3280,-0.0152588,0.0067749,
3282,-0.000610352,0.00665283,
3284,-0.00427246,0.00656128,
3286,-0.010376,0.00653076,
3288,-0.00183105,0.00647583,
3290,-0.00183105,0.00648804,
3292,-0.00610352,0.00654907,
3294,-0.00427246,0.00651855,
3296,-0.00183105,0.00643921,
3298,-0.00549316,0.00648193,
3300,-0.00854492,0.00648804,
3302,-0.00427246,0.00649414,
3304,-0.0012207,0.00637817,
3306,-0.0164795,0.00647583,
3308,-0.00549316,0.00638428,
3310,0.00427246,0.00630493,
3312,-0.0128174,0.00640869,
3314,-0.00488281,0.00645142,
3316,0.00244141,0.00646973,
3318,-0.00183105,0.00640259,
3320,0.00366211,0.00630493,
3322,0.0109863,0.00640259,
3324,-0.00305176,0.00631714,
3326,-0.00854492,0.00637817,
3328,-0.00610352,0.00631714,
3330,0.00915527,0.00635376,
3332,-0.0140381,0.00643921,
3334,-0.0158691,0.00647583,
3336,-0.00549316,0.00652466,
3338,-0.00671387,0.00657959,
3340,-0.00549316,0.0065918,
3342,-0.0012207,0.00650635,
3344,-0.0140381,0.00662842,
3346,0.00244141,0.00662231,
3348,-0.00488281,0.00665283,
3350,0,0.00662842,
3352,-0.0177002,0.00667725,
3354,-0.00854492,0.00670166,
3356,-0.00244141,0.00667114,
3358,-0.00427246,0.00648804,
3360,-0.00488281,0.00634155,
3362,-0.0189209,0.0064209,
3364,0.00305176,0.00620117,
3366,0.0109863,0.00629272,
3368,-0.0189209,0.00645752,
3370,-0.0109863,0.00644531,
3372,-0.00305176,0.00638428,
3374,-0.00793457,0.00641479,
3376,0.00305176,0.00637817,
3378,-0.0134277,0.00646362,
3380,-0.0140381,0.00651245,
3382,-0.00244141,0.00650635,
3384,0.0012207,0.00650635,
3386,-0.00244141,0.00651245,
3388,-0.0115967,0.00651245,
3390,0.00244141,0.00648804,
3392,-0.00427246,0.00646362,
3394,-0.00305176,0.00643311,
3396,0,0.00626221,
3398,0.00732422,0.0062561,
3400,-0.000610352,0.00623169,
3402,-0.00793457,0.00630493,
3404,0.00366211,0.00630493,
3406,0.00366211,0.00631714,
3408,-0.00549316,0.00631714,
3410,-0.010376,0.00640869,
3412,0.00732422,0.00647583,
3414,-0.000610352,0.00645142,
3416,0.00427246,0.0064209,
3418,-0.00732422,0.00643921,
3420,0.00183105,0.00644531,
3422,0.00366211,0.00643311,
3424,0,0.00636597,
3426,-0.0012207,0.00631714,
3428,-0.00854492,0.00634155,
3430,-0.0146484,0.00639648,
3432,-0.00488281,0.00632935,
3434,-0.0140381,0.00644531,
3436,0.000610352,0.00643311,
3438,-0.00183105,0.00635986,
3440,-0.00610352,0.00631714,
3442,-0.00305176,0.00622559,
3444,-0.00488281,0.00621338,
3446,0.0183105,0.00630493,
3448,-0.00671387,0.00627441,
3450,-0.0177002,0.00644531,
3452,0.00732422,0.00649414,
3454,0.00244141,0.00643921,
3456,-0.00732422,0.00647583,
3458,-0.0115967,0.00643921,
3460,-0.00427246,0.006427,
3462,0.00488281,0.00646973,
3464,-0.00244141,0.00643921,
3466,0,0.0064209,
3468,-0.00854492,0.00638428,
3470,-0.00366211,0.00632324,
3472,0.00488281,0.00635986,
3474,-0.00854492,0.00641479,
3476,0.00366211,0.00636597,
3478,-0.00427246,0.00635986,
3480,0.00244141,0.00623169,
3482,-0.0189209,0.00641479,
3484,-0.00244141,0.00639648,
3486,0.00305176,0.00632324,
3488,-0.00732422,0.00637817,
3490,-0.00915527,0.00645142,
3492,-0.00244141,0.00641479,
3494,-0.0164795,0.00653687,
3496,-0.00427246,0.00656128,
3498,-0.00732422,0.00657959,
3500,0.00732422,0.00656738,
3502,-0.00427246,0.00656738,
3504,-0.00976563,0.00665283,
3506,0.000610352,0.00649414,
3508,-0.00854492,0.00652466,
3510,-0.00366211,0.00651855,
3512,0.0012207,0.00640259,
3514,-0.00915527,0.00644531,
3516,-0.00366211,0.00645752,
3518,-0.00915527,0.00653076,
3520,0.0012207,0.00650635,
3522,-0.00488281,0.00644531,
3524,-0.00610352,0.00647583,
3526,0.00183105,0.00640869,
3528,0.00305176,0.00637817,
3530,-0.00610352,0.00634766,
3532,0.0012207,0.00621948,
3534,-0.00854492,0.00614624,
3536,0.00427246,0.00613403,
3538,0.00549316,0.00612183,
3540,-0.00427246,0.00610962,
3542,0.0115967,0.00621338,
3544,-0.012207,0.00619507,
3546,-0.022583,0.00639648,
3548,0.00793457,0.006427,
3550,0.0012207,0.00643921,
3552,-0.0158691,0.0064209,
3554,-0.012207,0.00645752,
3556,-0.00854492,0.00651855,
3558,-0.0115967,0.0065918,
3560,-0.0012207,0.00655518,
3562,-0.00671387,0.00643311,
3564,-0.00427246,0.00644531,
3566,0,0.00633545,
3568,-0.00671387,0.00621338,
3570,-0.00549316,0.00615845,
3572,-0.0012207,0.00614014,
3574,-0.00183105,0.0060791,
3576,-0.00305176,0.0060791,
3578,-0.00732422,0.00601807,
3580,-0.0109863,0.00598755,
3582,0.00610352,0.00602417,
3584,-0.00854492,0.00609741,
3586,0.00366211,0.00610962,
3588,-0.000610352,0.00599976,
3590,-0.00244141,0.00599976,
3592,0.00244141,0.00598145,
3594,-0.00244141,0.00597534,
3596,-0.00549316,0.00603027,
3598,0.0012207,0.00596924,
3600,-0.000610352,0.00596924,
3602,-0.00549316,0.00594482,
3604,0.000610352,0.00591431,
3606,-0.00976563,0.00597534,
3608,-0.00732422,0.00599365,
3610,0.00549316,0.00594482,
3612,-0.00549316,0.00592651,
3614,-0.00976563,0.00601807,
3616,0.00671387,0.00604248,
3618,-0.00488281,0.00601807,
3620,-0.00915527,0.00609131,
3622,-0.00549316,0.00610962,
3624,0.000610352,0.00611572,
3626,-0.00732422,0.00617676,
3628,-0.00793457,0.00617065,
3630,-0.0115967,0.00614014,
3632,-0.00854492,0.00617676,
3634,-0.00671387,0.00610352,
3636,-0.00793457,0.00617676,
3638,-0.010376,0.00626221,
3640,-0.00366211,0.00623779,
3642,-0.00732422,0.00628052,
3644,-0.00244141,0.0062561,
3646,0.000610352,0.0060791,
3648,-0.00915527,0.00610352,
3650,0.00183105,0.00594482,
3652,0.00305176,0.0059021,
3654,0.00305176,0.0059082,
3656,0.0195313,0.00603027,
3658,-0.0152588,0.00606689,
3660,-0.00793457,0.00610352,
3662,0.010376,0.00615845,
3664,0.00305176,0.00616455,
3666,-0.00183105,0.00618286,
3668,-0.0012207,0.00610962,
3670,-0.00488281,0.00612183,
3672,-0.0109863,0.00618286,
3674,-0.00549316,0.00615234,
3676,0.00732422,0.00618896,
3678,-0.0109863,0.0062561,
3680,-0.0183105,0.00641479,
3682,-0.00488281,0.00627441,
3684,-0.0170898,0.0064209,
3686,-0.00427246,0.00643311,
3688,0.00549316,0.00641479,
3690,-0.0256348,0.00657959,
3692,0,0.00655518,
3694,0.00366211,0.006427,
3696,-0.00366211,0.0064209,
3698,-0.012207,0.00646973,
3700,-0.00732422,0.00646973,
3702,-0.00244141,0.00645142,
3704,-0.00305176,0.00638428,
3706,-0.0128174,0.00650635,
3708,-0.0152588,0.00657349,
3710,-0.00244141,0.00656128,
3712,-0.00305176,0.00657959,
3714,0.000610352,0.00649414,
3716,0.00488281,0.00650635,
3718,-0.00671387,0.00648193,
3720,-0.0134277,0.006604,
3722,0.0128174,0.00668335,
3724,0.00305176,0.00665283,
3726,-0.00305176,0.00666504,
3728,-0.00427246,0.00667725,
3730,-0.00427246,0.00665894,
3732,-0.0152588,0.00679932,
3734,-0.00549316,0.0067688,
3736,-0.00183105,0.00674438,
3738,-0.0128174,0.00681763,
3740,-0.00793457,0.00685425,
3742,-0.00366211,0.0067749,
3744,-0.0140381,0.00679321,
3746,0.0109863,0.00667725,
3748,-0.000610352,0.006604,
3750,-0.0201416,0.00679321,
3752,-0.00610352,0.00669556,
3754,0.00793457,0.00665283,
3756,-0.0012207,0.00657959,
3758,-0.0164795,0.00662842,
3760,-0.00793457,0.00669556,
3762,0.00244141,0.00665283,
3764,-0.00610352,0.00667114,
3766,-0.0012207,0.00668335,
3768,-0.00549316,0.00667114,
3770,-0.00488281,0.00666504,
3772,-0.00183105,0.00667114,
3774,-0.00366211,0.00668945,
3776,-0.00610352,0.00671997,
3778,-0.010376,0.00675049,
3780,-0.00366211,0.00667725,
3782,-0.00488281,0.00666504,
3784,-0.0012207,0.0065918,
3786,-0.00671387,0.00662231,
3788,-0.00305176,0.00664673,
3790,-0.00305176,0.00665283,
3792,-0.00488281,0.00667725,
3794,0.00488281,0.00670166,
3796,-0.00610352,0.00670776,
3798,0,0.00669556,
3800,0.00244141,0.00671387,
3802,-0.00732422,0.00673218,
3804,-0.00488281,0.0067749,
3806,0.00427246,0.00671997,
3808,-0.0140381,0.00678711,
3810,-0.00183105,0.00675049,
3812,-0.00244141,0.00671997,
3814,-0.00305176,0.00665283,
3816,-0.00671387,0.00665283,
3818,-0.00244141,0.00662842,
3820,0.00549316,0.0065918,
3822,0.00549316,0.0065918,
3824,0.00610352,0.00664673,
3826,0.00366211,0.00661011,
3828,-0.00305176,0.00656128,
3830,0.000610352,0.00645142,
3832,0.0109863,0.00647583,
3834,-0.00549316,0.00646362,
3836,-0.0201416,0.00658569,
3838,-0.0146484,0.00662842,
3840,0.00854492,0.00667725,
3842,-0.0189209,0.00679321,
3844,-0.00671387,0.00683594,
3846,-0.00305176,0.00686035,
3848,-0.0189209,0.00695801,
3850,0.0012207,0.0069519,
3852,0.00549316,0.00697632,
3854,-0.00854492,0.00703125,
3856,-0.00488281,0.00688477,
3858,-0.00976563,0.00682983,
3860,0.00488281,0.00679932,
3862,-0.010376,0.00679932,
3864,0.00366211,0.00680542,
3866,-0.000610352,0.00679321,
3868,0.0012207,0.00679321,
3870,-0.00305176,0.0067749,
3872,-0.00488281,0.00671387,
3874,0.0012207,0.00667114,
3876,-0.00793457,0.00667725,
3878,-0.012207,0.00668945,
3880,-0.00854492,0.0065918,
3882,-0.00854492,0.00662842,
3884,-0.00732422,0.00653076,
3886,-0.0109863,0.0065979,
3888,-0.00610352,0.006604,
3890,-0.00488281,0.00639648,
3892,-0.0012207,0.00640869,
3894,0.0012207,0.00638428,
3896,-0.0012207,0.00635986,
3898,-0.00976563,0.00633545,
3900,0.00915527,0.00635376,
3902,0.00244141,0.00635376,
3904,-0.00183105,0.00634155,
3906,0.00305176,0.0062439,
3908,-0.00610352,0.00615234,
3910,-0.00976563,0.00622559,
3912,0,0.00619507,
3914,-0.000610352,0.00619507,
3916,-0.00854492,0.00623169,
3918,-0.0146484,0.00631104,
3920,-0.00183105,0.00619507,
3922,-0.00488281,0.00611572,
3924,-0.00976563,0.00618286,
3926,0.00488281,0.00620117,
3928,0.00366211,0.00619507,
3930,-0.00976563,0.00625,
3932,-0.00732422,0.00617065,
3934,0,0.00611572,
3936,0.0012207,0.00610962,
3938,-0.00488281,0.00603027,
3940,0.0219727,0.00617065,
3942,-0.0311279,0.00644531,
3944,-0.00793457,0.00638428,
3946,-0.0012207,0.00628662,
3948,0.00854492,0.00636597,
3950,-0.00427246,0.00620728,
3952,-0.00793457,0.00622559,
3954,-0.0164795,0.00631104,
3956,0.0012207,0.00631104,
3958,-0.00427246,0.00618896,
3960,-0.00488281,0.00615845,
3962,-0.00732422,0.00620728,
3964,-0.0012207,0.00615845,
3966,-0.0012207,0.00615845,
3968,-0.0115967,0.00621948,
3970,0.00488281,0.00621948,
3972,0.00244141,0.00622559,
3974,0,0.00618896,
3976,-0.00549316,0.00618286,
3978,-0.00732422,0.00615234,
3980,0.00549316,0.00617065,
3982,-0.00671387,0.00618896,
3984,-0.00854492,0.00626221,
3986,-0.00366211,0.00623169,
3988,-0.00610352,0.00626221,
3990,-0.00671387,0.00629883,
3992,-0.00305176,0.00628052,
3994,-0.00671387,0.00629883,
3996,-0.00976563,0.00633545,
3998,0.00915527,0.006427,
4000,-0.0109863,0.00651245,
4002,-0.00610352,0.00650024,
4004,0.00488281,0.00650024,
4006,0.00671387,0.00652466,
4008,-0.00793457,0.00646362,
4010,0.00732422,0.00651855,
4012,0.00854492,0.00657959,
4014,-0.00549316,0.006604,
4016,0.00427246,0.00657959,
4018,-0.00610352,0.00661621,
4020,-0.00488281,0.00661011,
4022,0.00183105,0.00657349,
4024,-0.010376,0.00661621,
4026,0.0140381,0.00671997,
4028,-0.00976563,0.00678711,
4030,-0.0152588,0.00693359,
4032,0.00305176,0.00685425,
4034,0.00183105,0.00681763,
4036,-0.00854492,0.00670166,
4038,-0.00610352,0.00661621,
4040,-0.00305176,0.00656128,
4042,-0.000610352,0.00637817,
4044,-0.0109863,0.0064209,
4046,0.0012207,0.00640259,
4048,-0.0012207,0.00622559,
4050,-0.00854492,0.00629883,
4052,-0.00549316,0.00629883,
4054,-0.00305176,0.0062439,
4056,-0.0170898,0.00636597,
4058,-0.00610352,0.00632935,
4060,-0.00366211,0.00631714,
4062,-0.0109863,0.00632324,
4064,-0.00305176,0.00631714,
4066,-0.00366211,0.00634766,
4068,-0.020752,0.00654297,
4070,-0.00610352,0.00657349,
4072,-0.0115967,0.00664063,
4074,-0.00915527,0.00671997,
4076,-0.00488281,0.00668945,
4078,-0.00305176,0.0065979,
4080,-0.0158691,0.00667114,
4082,-0.00854492,0.00667114,
4084,0.00549316,0.00665283,
4086,-0.0012207,0.00655518,
4088,-0.0012207,0.00650635,
4090,-0.0140381,0.0065979,
4092,-0.00854492,0.00667114,
4094,-0.00244141,0.00668335,
4096,-0.00488281,0.00671997,
4098,-0.0115967,0.00673828,
4100,-0.0128174,0.0067749,
4102,0.00854492,0.00683594,
4104,-0.0109863,0.00692749,
4106,-0.0134277,0.00703125,
4108,-0.0134277,0.00710449,
4110,0.0134277,0.00714111,
4112,-0.00732422,0.00721436,
4114,-0.0146484,0.00735474,
4116,0,0.00726929,
4118,-0.00549316,0.00717773,
4120,-0.000610352,0.00716553,
4122,-0.00610352,0.00717773,
4124,-0.0115967,0.00719604,
4126,-0.0012207,0.00715942,
4128,0.000610352,0.00712891,
4130,0.00366211,0.00706787,
4132,0.00854492,0.00708008,
4134,-0.0250244,0.00733032,
4136,-0.00366211,0.00735474,
4138,0.00183105,0.00732422,
4140,-0.0012207,0.0071167,
4142,0.0012207,0.00681763,
4144,-0.0128174,0.00686646,
4146,-0.0213623,0.00706787,
4148,0,0.00698242,
4150,-0.00427246,0.00698242,
4152,-0.00366211,0.0069397,
4154,-0.00305176,0.00680542,
4156,0.000610352,0.00679932,
4158,-0.00854492,0.00684204,
4160,-0.00366211,0.00682983,
4162,-0.00305176,0.00678711,
4164,-0.00305176,0.00680542,
4166,0.0012207,0.00680542,
4168,-0.00793457,0.0067688,
4170,-0.00671387,0.00678711,
4172,-0.00427246,0.00680542,
4174,-0.00610352,0.00686646,
4176,0.00732422,0.00688477,
4178,-0.00671387,0.00687866,
4180,0,0.00682373,
4182,-0.00244141,0.00678101,
4184,0.00183105,0.00671387,
4186,0.00610352,0.00673828,
4188,0.0012207,0.00668945,
4190,-0.00915527,0.00671387,
4192,-0.00732422,0.00675659,
4194,0.00976563,0.00678711,
4196,-0.0128174,0.00681763,
4198,-0.00793457,0.00680542,
4200,-0.00366211,0.00673218,
4202,-0.00854492,0.00675659,
4204,-0.00976563,0.00680542,
4206,-0.00427246,0.00678101,
4208,-0.00549316,0.00675659,
4210,-0.00976563,0.00678101,
4212,-0.0158691,0.00685425,
4214,0.00976563,0.00689697,
4216,-0.000610352,0.00686035,
4218,-0.0152588,0.0069519,
4220,0.00183105,0.00692139,
4222,0.00549316,0.00695801,
4224,-0.00488281,0.00690308,
4226,-0.0012207,0.0067749,
4228,0,0.00667725,
4230,-0.00305176,0.00655518,
4232,-0.000610352,0.00653076,
4234,-0.00366211,0.00654907,
4236,-0.000610352,0.00646973,
4238,-0.00915527,0.00650024,
4240,-0.0109863,0.00657959,
4242,-0.00366211,0.00661011,
4244,0.00183105,0.00651855,
4246,-0.00549316,0.00656128,
4248,-0.00915527,0.00664063,
4250,0.00305176,0.00658569,
4252,-0.0109863,0.00664063,
4254,0.000610352,0.00661621,
4256,0.00305176,0.00647583,
4258,0.0012207,0.006427,
4260,-0.0115967,0.00650635,
4262,-0.00244141,0.0064209,
4264,0.00366211,0.006427,
4266,0.00183105,0.00640869,
4268,-0.00610352,0.00626221,
4270,-0.00793457,0.00628052,
4272,-0.00854492,0.00625,
4274,0.00732422,0.00623169,
4276,-0.010376,0.00628662,
4278,-0.0146484,0.00640259,
4280,-0.010376,0.00634766,
4282,-0.0146484,0.00640869,
4284,-0.00732422,0.006427,
4286,-0.000610352,0.0064209,
4288,-0.00549316,0.00646362,
4290,-0.010376,0.006427,
4292,-0.00915527,0.00643311,
4294,-0.0012207,0.0064209,
4296,-0.00793457,0.00645142,
4298,0.00305176,0.00636597,
4300,-0.00610352,0.00629883,
4302,-0.0158691,0.00637207,
4304,-0.00732422,0.00633545,
4306,-0.00732422,0.00627441,
4308,-0.022583,0.00636597,
4310,-0.0256348,0.00648804,
4312,0.0177002,0.0065918,
4314,-0.0140381,0.00658569,
4316,0.0164795,0.00675049,
4318,0.00793457,0.0067749,
4320,0.00488281,0.00681763,
4322,0.0146484,0.00690308,
4324,0.0292969,0.00708008,
4326,0.0183105,0.00725098,
4328,-0.020752,0.00745239,
4330,0.00549316,0.0074707,
4332,0.0012207,0.00739746,
4334,-0.0238037,0.00738525,
4336,-0.0305176,0.00765381,
4338,-0.0158691,0.00779419,
4340,-0.00854492,0.00786743,
4342,-0.0152588,0.00800781,
4344,-0.0201416,0.00808105,
4346,0.00305176,0.00789795,
4348,-0.0213623,0.00811157,
4350,-0.0231934,0.00830078,
4352,-0.00183105,0.00828247,
4354,0.00366211,0.00828857,
4356,-0.010376,0.00838623,
4358,-0.0189209,0.00848999,
4360,-0.00305176,0.00848389,
4362,-0.0115967,0.00856934,
4364,-0.00610352,0.00859985,
4366,-0.00671387,0.00865479,
4368,-0.00671387,0.00864258,
4370,0.000610352,0.00858154,
4372,-0.0164795,0.00870361,
4374,-0.0115967,0.00875854,
4376,-0.0323486,0.00900879,
4378,0.00793457,0.009021,
4380,-0.0317383,0.00933838,
4382,0.0787354,0.0101013,
4384,0.0360107,0.0104431,
4386,0.0305176,0.0106873,
4388,0.0634766,0.0113098,
4390,0.137939,0.0125977,
4392,0.13916,0.013916,
4394,0.123901,0.0150574,
4396,0.151367,0.0164429,
4398,0.128784,0.0176514,
4400,0.055542,0.0181702,
4402,-0.0543213,0.0186279,
4404,-0.0201416,0.0187317,
4406,0.0762939,0.0194519,
4408,0.0531006,0.019928,
4410,-0.15625,0.0213928,
4412,-0.212402,0.0233582,
4414,-0.236816,0.0256287,
4416,-0.0305176,0.0259277,
4418,0.0653076,0.0264282,
4420,-0.157471,0.0279846,
4422,-0.0872803,0.0288025,
4424,-0.0408936,0.0291626,
4426,-0.0262451,0.0294128,
4428,-0.0286865,0.0296997,
4430,0.0128174,0.0297974,
4432,-0.00183105,0.0298096,
4434,-0.0323486,0.0300964,
4436,-0.0756836,0.0308472,
4438,-0.0891113,0.0316467,
4440,-0.0775146,0.032312,
4442,-0.114136,0.0334167,
4444,-0.126343,0.0346619,
4446,-0.00793457,0.0346863,
4448,-0.0311279,0.034906,
4450,-0.111694,0.0359924,
4452,-0.0317383,0.0362,
4454,-0.0482178,0.036676,
4456,-0.00366211,0.0366821,
4458,-0.0402832,0.0370728,
4460,0.012207,0.0370789,
4462,-0.0128174,0.0371826,
4464,0.0762939,0.0379089,
4466,0.168457,0.0395752,
4468,0.0476074,0.0399902,
4470,0.0891113,0.040802,
4472,0.132446,0.042041,
4474,0.0701904,0.0426697,
4476,-0.0256348,0.0428223,
4478,0.0292969,0.0429688,
4480,0.0982666,0.0438477,
4482,0.0720215,0.0444214,
4484,0.0115967,0.0444641,
4486,0.0720215,0.0451782,
4488,0.0891113,0.0460144,
4490,0.174561,0.0476562,
4492,-0.176392,0.0493286,
4494,-0.00427246,0.0493591,
4496,0.0354004,0.0496338,
4498,-0.0585938,0.0501892,
4500,-0.231323,0.0524414,
4502,-0.15564,0.0538391,
4504,-0.198975,0.0557556,
4506,-0.116577,0.0568481,
4508,-0.0195313,0.0568176,
4510,-0.0640869,0.0572021,
4512,-0.0970459,0.0579956,
4514,-0.133057,0.0591858,
4516,-0.0653076,0.0596741,
4518,-0.0592041,0.0601868,
4520,-0.090332,0.0610413,
4522,-0.0946045,0.0618408,
4524,-0.0933838,0.0624817,
4526,-0.0689697,0.0629883,
4528,-0.0402832,0.0631836,
4530,-0.0604248,0.0637329,
4532,-0.0646973,0.0643677,
4534,-0.0360107,0.0644897,
4536,-0.0976563,0.0651611,
4538,0.101929,0.0660217,
4540,-0.00244141,0.0659607,
4542,-0.0115967,0.0659241,
4544,-0.0280762,0.0660034,
4546,0.057373,0.0665466,
4548,0.0775146,0.0671082,
4550,-0.0134277,0.0670105,
4552,0.0634766,0.067627,
4554,0.0384521,0.0679749,
4556,0.0292969,0.0681641,
4558,0.0177002,0.0681519,
4560,0.0567627,0.068689,
4562,0.0189209,0.0687622,
4564,-0.0134277,0.0688354,
4566,-0.0170898,0.0689392,
4568,-0.00610352,0.0689331,
4570,0.0244141,0.0691711,
4572,-0.00244141,0.0690308,
4574,-0.0341797,0.0692566,
4576,-0.0274658,0.0692078,
4578,-0.0427246,0.0695557,
4580,-0.0146484,0.0693848,
4582,0.00854492,0.0686829,
4584,0.0256348,0.0685791,
4586,0.0201416,0.0684753,
4588,-0.0164795,0.0680054,
4590,-0.131836,0.0679443,
4592,0.012207,0.0666748,
4594,0.0396729,0.0658325,
4596,-0.0402832,0.0647217,
4598,-0.0921631,0.0643555,
4600,-0.0634766,0.0644348,
4602,-0.0598145,0.0644897,
4604,-0.0616455,0.0649048,
4606,-0.0189209,0.0643311,
4608,-0.0115967,0.063916,
4610,-0.000610352,0.0623596,
4612,-0.00366211,0.0602722,
4614,-0.0231934,0.058136,
4616,0.0756836,0.0585876,
4618,0.0994873,0.0589294,
4620,0.0415039,0.0577698,
4622,0.0628662,0.0575256,
4624,-0.140991,0.0585266,
4626,0.101929,0.0592834,
4628,0.0787354,0.0597839,
4630,0.0476074,0.0601318,
4632,0.0653076,0.0607666,
4634,-0.0518799,0.0609619,
4636,-0.00610352,0.0602661,
4638,-0.0115967,0.059491,
4640,0.0128174,0.058844,
4642,0.0299072,0.0580017,
4644,0.0170898,0.0569092,
4646,0.0286865,0.0571167,
4648,0.00854492,0.0568909,
4650,0.022583,0.0559998,
4652,0.00671387,0.0557495,
4654,0.0158691,0.055426,
4656,0.131226,0.0567017,
4658,0.0964355,0.0572632,
4660,-0.109863,0.0582397,
4662,-0.0592041,0.0587036,
4664,-0.0537109,0.0584778,
4666,0.00183105,0.0568115,
4668,-0.0604248,0.0569397,
4670,-0.0256348,0.0563049,
4672,-0.0299072,0.0552795,
4674,0.020752,0.0547852,
4676,0.00305176,0.0545593,
4678,-0.0909424,0.0551758,
4680,0.0396729,0.0545898,
4682,-0.0134277,0.0540039,
4684,0.0158691,0.0540466,
4686,0.00183105,0.0533447,
4688,-0.0628662,0.0530823,
4690,-0.00488281,0.0513855,
4692,-0.0012207,0.0496338,
4694,-0.0146484,0.0497375,
4696,0.0787354,0.0501709,
4698,0.0415039,0.05,
4700,-0.0213623,0.0479004,
4702,0.107422,0.0474182,
4704,0.106812,0.0464966,
4706,0.090332,0.0462341,
4708,-0.117798,0.0472168,
4710,0.045166,0.0470276,
4712,-0.0134277,0.0461914,
4714,0.0128174,0.044989,
4716,-0.0708008,0.0450439,
4718,-0.101929,0.0454712,
4720,-0.0616455,0.0451843,
4722,-0.0195313,0.0444336,
4724,-0.0134277,0.043634,
4726,0.0561523,0.0435059,
4728,0.065918,0.0437622,
4730,0.10376,0.0441956,
4732,0.12146,0.0447632,
4734,0.0195313,0.0445984,
4736,-0.0299072,0.0439209,
4738,0.0683594,0.0435852,
4740,0.03479,0.0439087,
4742,-0.0469971,0.0442627,
4744,-0.0628662,0.0446106,
4746,-0.0402832,0.0444397,
4748,-0.0775146,0.0444397,
4750,-0.0616455,0.0449219,
4752,0.0341797,0.0446289,
4754,0.0274658,0.044519,
4756,0.0408936,0.044635,
4758,-0.0177002,0.044635,
4760,-0.0744629,0.044812,
4762,0.0341797,0.0449646,
4764,0.045166,0.045282,
4766,0.00488281,0.0451599,
4768,-0.022583,0.0453247,
4770,-0.0463867,0.0455444,
4772,0.0543213,0.0460632,
4774,0.00549316,0.0457764,
4776,0.0610352,0.0461121,
4778,0.0457764,0.0461426,
4780,-0.00183105,0.0460144,
4782,-0.0744629,0.0466736,
4784,0.0689697,0.0471069,
4786,0.0946045,0.0478516,
4788,0.067749,0.0483643,
4790,-0.0109863,0.0471558,
4792,-0.0665283,0.047699,
4794,0.0604248,0.0479065,
4796,0.00854492,0.0475891,
4798,0.0567627,0.0472351,
4800,-0.0170898,0.0467712,
4802,-0.0726318,0.0468994,
4804,-0.0543213,0.0468262,
4806,-0.0335693,0.0469727,
4808,-0.0262451,0.0471191,
4810,0.0128174,0.0472412,
4812,0.065918,0.0478638,
4814,0.0469971,0.0481018,
4816,0.0836182,0.0481812,
4818,-0.0622559,0.0478088,
4820,0.00793457,0.0474731,
4822,0.0762939,0.0476074,
4824,-0.0732422,0.0469299,
4826,-0.0378418,0.0462891,
4828,-0.0494385,0.0459961,
4830,-0.0585938,0.046106,
4832,-0.012207,0.045575,
4834,-0.0115967,0.0451721,
4836,0.055542,0.0456665,
4838,0.0305176,0.0458557,
4840,0.0109863,0.0458374,
4842,0.118408,0.0467224,
4844,0.100098,0.0475525,
4846,0.0286865,0.0475525,
4848,0.0274658,0.0477417,
4850,0.110474,0.0486206,
4852,-0.0158691,0.0487122,
4854,-0.0268555,0.048822,
4856,0.00793457,0.0475891,
4858,0.0256348,0.0468811,
4860,0.0286865,0.0460693,
4862,-0.0671387,0.0461487,
4864,-0.0799561,0.0464111,
4866,-0.0390625,0.0467834,
4868,0.0109863,0.0462891,
4870,0.0427246,0.04646,
4872,0.032959,0.0464905,
4874,0.0750732,0.0470337,
4876,0.0933838,0.047937,
4878,0.164185,0.0486694,
4880,0.0982666,0.0492554,
4882,-0.00488281,0.0491699,
4884,-0.0720215,0.0497314,
4886,0.0732422,0.0504456,
4888,-0.0256348,0.0500732,
4890,-0.0744629,0.050769,
4892,-0.158691,0.0523438,
4894,-0.115356,0.0533508,
4896,-0.0262451,0.0528259,
4898,0.0152588,0.0525635,
4900,0.00915527,0.0524414,
4902,0.0134277,0.0515015,
4904,0.133057,0.0517639,
4906,0.183105,0.0526917,
4908,0.0286865,0.0518005,
4910,-0.0238037,0.0515869,
4912,-0.0775146,0.0522278,
4914,0.119629,0.0532959,
4916,-0.00915527,0.0526794,
4918,-0.0561523,0.0522217,
4920,-0.032959,0.0519348,
4922,-0.0128174,0.0518677,
4924,-0.022583,0.0519592,
4926,-0.0671387,0.0520691,
4928,0.0860596,0.0522705,
4930,0.183105,0.053064,
4932,0.0561523,0.0524109,
4934,0.0390625,0.0526062,
4936,-0.0134277,0.0524414,
4938,-0.0170898,0.0519287,
4940,0.0183105,0.0517639,
4942,0.0195313,0.0514893,
4944,-0.0872803,0.0517334,
4946,-0.117798,0.0525085,
4948,-0.0610352,0.0523438,
4950,-0.020752,0.0519348,
4952,0.0140381,0.0517334,
4954,0.0250244,0.051709,
4956,0.117798,0.052478,
4958,0.0250244,0.0525513,
4960,0.0848389,0.052655,
4962,0.108643,0.0533997,
4964,0.00793457,0.0530273,
4966,0.114746,0.054126,
4968,-0.0518799,0.0544189,
4970,0.0231934,0.054187,
4972,-0.0610352,0.0542542,
4974,0.0146484,0.0543457,
4976,-0.0177002,0.0539124,
4978,-0.0933838,0.0543884,
4980,0.032959,0.0546997,
4982,0.0537109,0.0544922,
4984,-0.0280762,0.0540833,
4986,0.00244141,0.0531616,
4988,0.00915527,0.0525757,
4990,0.03479,0.0528137,
4992,0.0396729,0.0525452,
4994,0.0616455,0.0525574,
4996,0.0128174,0.0526001,
4998,0.0494385,0.0525269,
5000,-0.0610352,0.0529663,
5002,-0.00244141,0.0522644,
5004,0.0292969,0.0520142,
5006,-0.0189209,0.0518677,
5008,-0.0482178,0.0520874,
5010,-0.00671387,0.0520264,
5012,-0.0665283,0.0520325,
5014,-0.0146484,0.051709,
5016,0.0292969,0.0511658,
5018,0.0335693,0.0508789,
5020,0.0524902,0.0513245,
5022,0.150146,0.052063,
5024,0.0488281,0.0518188,
5026,-0.0323486,0.0517639,
5028,0.0445557,0.0517151,
5030,0.0915527,0.0520447,
5032,0.0616455,0.0525391,
5034,0.0152588,0.0525757,
5036,-0.0518799,0.0525391,
5038,-0.0915527,0.0531494,
5040,0.00183105,0.0530579,
5042,-0.00854492,0.0519592,
5044,0.0500488,0.0514587,
5046,0.0537109,0.051709,
5048,-0.0598145,0.0520325,
5050,-0.0323486,0.0512512,
5052,0.0439453,0.051532,
5054,0.145874,0.0527222,
5056,-0.0134277,0.0527771,
5058,0.022583,0.0527466,
5060,-0.00915527,0.0525513,
5062,0.0634766,0.0525146,
5064,0.0421143,0.0521362,
5066,0.0201416,0.051947,
5068,-0.128174,0.0531189,
5070,-0.0231934,0.0529236,
5072,0,0.052594,
5074,-0.0354004,0.0521973,
5076,-0.0653076,0.0519165,
5078,-0.0512695,0.0507874,
5080,-0.0360107,0.0501648,
5082,0.0262451,0.0503784,
5084,0.0720215,0.0503784,
5086,-0.0158691,0.0498047,
5088,-0.00976563,0.049646,
5090,-0.00976563,0.048999,
5092,0.032959,0.0477417,
5094,-0.0213623,0.0468018,
5096,0.00183105,0.0465576,
5098,0.0311279,0.0467163,
5100,0,0.0466248,
5102,0.0811768,0.0473022,
5104,0.00610352,0.0460327,
5106,0.0640869,0.0448425,
5108,0.0219727,0.0447754,
5110,0.0189209,0.0447266,
5112,0.0756836,0.0447083,
5114,-0.010376,0.0436157,
5116,-0.0970459,0.0444946,
5118,-0.00976563,0.0440308,
5120,0.0213623,0.0439148,
5122,-0.0146484,0.0439331,
5124,-0.0109863,0.0438171,
5126,0.0244141,0.0433899,
5128,0.0402832,0.0429321,
5130,0.067749,0.0417786,
5132,0.0793457,0.0420105,
5134,0.0231934,0.0418518,
5136,-0.057373,0.0422913,
5138,0.0762939,0.0428833,
5140,0.0158691,0.0428589,
5142,-0.0158691,0.0428223,
5144,-0.0579834,0.0425293,
5146,-0.180054,0.0431519,
5148,0.00183105,0.0425598,
5150,-0.0445557,0.0427979,
5152,-0.03479,0.0430054,
5154,-0.0274658,0.0430298,
5156,0.00854492,0.0419373,
5158,-0.00854492,0.0417725,
5160,-0.00671387,0.0409912,
5162,0.0250244,0.040155,
5164,0.0756836,0.0408325,
5166,0.0463867,0.0401489,
5168,-0.0531006,0.0401611,
5170,0.0811768,0.040741,
5172,0.0274658,0.0404053,
5174,0.109863,0.0413574,
5176,0.0231934,0.0414124,
5178,0.00183105,0.0404968,
5180,0.055542,0.0407227,
5182,-0.0897217,0.0410828,
5184,0.0323486,0.0411255,
5186,-0.0152588,0.0412537,
5188,-0.0744629,0.0419067,
5190,-0.0579834,0.0421387,
5192,0.0524902,0.0422668,
5194,-0.0469971,0.0421204,
5196,-0.0683594,0.0426758,
5198,0.125122,0.0434326,
5200,-0.00244141,0.0428467,
5202,-0.0286865,0.0431091,
5204,-0.0219727,0.0430359,
5206,-0.0195313,0.043042,
5208,0.0476074,0.0430359,
5210,-0.0415039,0.0433838,
5212,0,0.0427185,
5214,-0.00671387,0.0426392,
5216,0.0653076,0.0429993,
5218,0.0415039,0.0430786,
5220,0.00366211,0.0425903,
5222,-0.0170898,0.0412598,
5224,0.0665283,0.0414368,
5226,0.0201416,0.0413147,
5228,0.00305176,0.0408997,
5230,-0.0146484,0.0401306,
5232,0.0183105,0.0396973,
5234,-0.0262451,0.0398071,
5236,0.0585938,0.0398743,
5238,0.0708008,0.0396667,
5240,-0.0299072,0.0399475,
5242,-0.127563,0.0411377,
5244,0.12085,0.0418457,
5246,-0.0219727,0.0415283,
5248,-0.0775146,0.0417053,
5250,-0.03479,0.0417297,
5252,-0.0396729,0.041687,
5254,-0.0274658,0.0405029,
5256,-0.020752,0.0405762,
5258,-0.00854492,0.0404358,
5260,-0.022583,0.0405701,
5262,-0.0201416,0.0401367,
5264,0.0280762,0.0399963,
5266,-0.0128174,0.0399231,
5268,-0.00488281,0.0386902,
5270,-0.022583,0.0386841,
5272,-0.00366211,0.0387207,
5274,0.0317383,0.0386841,
5276,-0.0286865,0.0383179,
5278,-0.00793457,0.0378845,
5280,-0.0262451,0.0377869,
5282,0.0219727,0.0377441,
5284,0.0262451,0.0372864,
5286,0.0585938,0.0377136,
5288,0.045166,0.0380676,
5290,-0.012207,0.038092,
5292,-0.0524902,0.0382874,
5294,0.0311279,0.038385,
5296,0.115356,0.0395203,
5298,-0.0543213,0.0397522,
5300,-0.0311279,0.0400635,
5302,-0.0189209,0.0394409,
5304,0.010376,0.0394836,
5306,-0.0262451,0.0391052,
5308,0.0244141,0.0391296,
5310,0.0231934,0.0391724,
5312,0.115356,0.0395691,
5314,-0.0189209,0.0396545,
5316,-0.0744629,0.0394287,
5318,0.0286865,0.0396179,
5320,0.0585938,0.0399902,
5322,-0.0549316,0.0403931,
5324,-0.0970459,0.0412537,
5326,0.032959,0.0413391,
5328,-0.0317383,0.0412537,
5330,0.0909424,0.0414856,
5332,0,0.0406921,
5334,-0.0494385,0.0409546,
5336,0.0750732,0.0411316,
5338,0.0823975,0.0411926,
5340,-0.0250244,0.0412842,
5342,0.0140381,0.0412659,
5344,-0.106201,0.041748,
5346,0,0.0399475,
5348,0.067749,0.0406067,
5350,0.0238037,0.0403992,
5352,-0.00610352,0.0401123,
5354,-0.174561,0.0415833,
5356,0.0244141,0.0417419,
5358,-0.0134277,0.0417908,
5360,-0.0531006,0.0422546,
5362,-0.0311279,0.0423157,
5364,-0.0854492,0.0424133,
5366,-0.0622559,0.042572,
5368,0.0268555,0.0423096,
5370,0.0421143,0.0419189,
5372,0.00244141,0.0416687,
5374,0.0506592,0.0410767,
5376,0.0177002,0.0410217,
5378,0.0152588,0.041156,
5380,0.0164795,0.0407654,
5382,-0.0366211,0.0402344,
5384,-0.0463867,0.0403748,
5386,-0.00671387,0.0402893,
5388,-0.0561523,0.0401062,
5390,0.0408936,0.0399353,
5392,0.0012207,0.0394226,
5394,-0.0549316,0.039502,
5396,-0.012207,0.0389404,
5398,0.0488281,0.0381775,
5400,-0.0604248,0.0387573,
5402,0.0256348,0.0387268,
5404,0.0421143,0.0389282,
5406,-0.0134277,0.0388672,
5408,-0.0787354,0.0391785,
5410,0.032959,0.039093,
5412,0.043335,0.0395264,
5414,-0.00671387,0.0395264,
5416,-0.0445557,0.0393188,
5418,0.0201416,0.0391052,
5420,-0.00732422,0.0391418,
5422,0.0231934,0.0392029,
5424,-0.0549316,0.0390869,
5426,-0.012207,0.0390076,
5428,-0.0140381,0.0391174,
5430,0.00305176,0.0390015,
5432,0.0299072,0.0391174,
5434,0.03479,0.0392029,
5436,0.0537109,0.0391541,
5438,-0.0402832,0.0388489,
5440,-0.0469971,0.0390198,
5442,0.101318,0.0387573,
5444,0.0286865,0.0378357,
5446,-0.0219727,0.0378357,
5448,0.045166,0.0375122,
5450,0.0622559,0.0377869,
5452,-0.00366211,0.0374268,
5454,-0.105591,0.038208,
5456,-0.0152588,0.0381531,
5458,0.0128174,0.0381958,
5460,-0.0268555,0.0382385,
5462,-0.0476074,0.0385132,
5464,-0.0787354,0.0390198,
5466,-0.0732422,0.039624,
5468,-0.0469971,0.0400452,
5470,-0.0238037,0.0400574,
5472,-0.00244141,0.0400452,
5474,0.00366211,0.0397644,
5476,0.00183105,0.0394958,
5478,0.128174,0.0406982,
5480,-0.133667,0.0417725,
5482,-0.0488281,0.042041,
5484,0.0354004,0.0421326,
5486,0.0457764,0.0420044,
5488,-0.0183105,0.0417358,
5490,-0.0732422,0.0423462,
5492,-0.0177002,0.0419983,
5494,-0.0201416,0.0418884,
5496,0.00244141,0.0407593,
5498,0.0317383,0.0405334,
5500,0.00549316,0.0402771,
5502,-0.00915527,0.0401794,
5504,0.0189209,0.0402649,
5506,0.00427246,0.0400452,
5508,-0.0598145,0.0403992,
5510,0.0408936,0.0405762,
5512,-0.0115967,0.0395386,
5514,0.0286865,0.0396362,
5516,0.055542,0.039447,
5518,0.00732422,0.0392334,
5520,-0.100708,0.0396545,
5522,0.065918,0.0397644,
5524,0.0231934,0.0390259,
5526,0.0305176,0.0390015,
5528,-0.0238037,0.0389221,
5530,-0.0653076,0.0386658,
5532,-0.0128174,0.0387939,
5534,0.00732422,0.0383728,
5536,0.00854492,0.0377075,
5538,-0.0231934,0.0371155,
5540,-0.0170898,0.0370361,
5542,0.0378418,0.0372742,
5544,-0.0506592,0.0367187,
5546,-0.0439453,0.0371582,
5548,-0.0268555,0.0367493,
5550,-0.0189209,0.0367004,
5552,0.0152588,0.036792,
5554,-0.0402832,0.0354492,
5556,0.012207,0.0353271,
5558,0.0311279,0.0355042,
5560,0.012207,0.0350952,
5562,-0.0610352,0.0353943,
5564,0.00427246,0.0345825,
5566,-0.0177002,0.034137,
5568,-0.0109863,0.0339783,
5570,-0.0299072,0.0338562,
5572,-0.0164795,0.0339966,
5574,0.045166,0.0339417,
5576,-0.022583,0.0339905,
5578,-0.0494385,0.0343323,
5580,0.010376,0.0342712,
5582,-0.0177002,0.034082,
5584,-0.012207,0.0337402,
5586,-0.0506592,0.0341797,
5588,-0.0537109,0.0341553,
5590,-0.0622559,0.0343689,
5592,-0.0152588,0.0345093,
5594,0.010376,0.0340637,
5596,-0.00366211,0.0339783,
5598,-0.00610352,0.033551,
5600,0.0354004,0.0333008,
5602,0.000610352,0.0330505,
5604,0.0531006,0.0331604,
5606,-0.0146484,0.0331726,
5608,-0.0152588,0.0325378,
5610,0.0610352,0.0328186,
5612,0.0170898,0.0325562,
5614,0.0158691,0.0326477,
5616,0.0390625,0.0325928,
5618,-0.0457764,0.0328491,
5620,0.0244141,0.03302,
5622,-0.00610352,0.0328491,
5624,-0.0146484,0.0324463,
5626,-0.0262451,0.0325867,
5628,-0.0219727,0.032666,
5630,0.0408936,0.0330444,
5632,0.0732422,0.0334778,
5634,-0.0201416,0.0333313,
5636,-0.0537109,0.0333313,
5638,-0.0280762,0.0332092,
5640,0.0500488,0.0332397,
5642,0.0146484,0.032373,
5644,-0.0305176,0.0323914,
5646,-0.057373,0.0327454,
5648,-0.0946045,0.0332397,
5650,-0.0500488,0.0331177,
5652,0.00183105,0.0330994,
5654,-0.0213623,0.0322571,
5656,-0.00549316,0.0321594,
5658,-0.0537109,0.0325684,
5660,-0.0311279,0.0326111,
5662,0.0115967,0.032251,
5664,-0.0134277,0.0315979,
5666,0.0256348,0.0311218,
5668,-0.0494385,0.0311462,
5670,0.022583,0.031134,
5672,0.00427246,0.0311523,
5674,-0.00671387,0.0311829,
5676,0.0482178,0.0316467,
5678,-0.0286865,0.0306519,
5680,-0.00305176,0.0293457,
5682,0.00183105,0.0288757,
5684,-0.0457764,0.0289795,
5686,-0.00366211,0.0285583,
5688,-0.00793457,0.0284546,
5690,-0.0170898,0.0278931,
5692,-0.0366211,0.0280823,
5694,-0.00793457,0.0279602,
5696,0.0415039,0.0283508,
5698,0.0622559,0.028656,
5700,-0.0396729,0.0289978,
5702,-0.0238037,0.0291443,
5704,0.00854492,0.0290405,
5706,0.0195313,0.0291931,
5708,-0.0195313,0.0287903,
5710,-0.020752,0.0285889,
5712,0.0238037,0.0287109,
5714,0.0616455,0.0290405,
5716,0.0274658,0.0287598,
5718,0.00366211,0.0287231,
5720,0.0732422,0.0284485,
5722,-0.0299072,0.0280884,
5724,0.0439453,0.0282959,
5726,0.0457764,0.0284485,
5728,0.00915527,0.028302,
5730,-0.0738525,0.0283875,
5732,-0.0695801,0.0289551,
5734,0.00854492,0.0289673,
5736,0.012207,0.0290039,
5738,-0.0158691,0.0289307,
5740,-0.0146484,0.0289063,
5742,-0.0427246,0.0289551,
5744,0.00610352,0.0285095,
5746,0.0323486,0.0283936,
5748,0.0482178,0.0286072,
5750,-0.0476074,0.028894,
5752,-0.00488281,0.0287903,
5754,-0.0567627,0.0289551,
5756,0.00854492,0.0289185,
5758,-0.0213623,0.0288208,
5760,-0.0524902,0.0292236,
5762,-0.0567627,0.0291809,
5764,-0.0256348,0.0293945,
5766,-0.0469971,0.0296875,
5768,0.0250244,0.0298279,
5770,0.00244141,0.0295532,
5772,0.0286865,0.0296753,
5774,0.0799561,0.0300232,
5776,-0.057373,0.0303711,
5778,-0.0274658,0.0301514,
5780,0.0250244,0.0302979,
5782,-0.010376,0.0302246,
5784,-0.00732422,0.0301758,
5786,-0.0012207,0.0296814,
5788,-0.0256348,0.0294006,
5790,-0.0488281,0.0292664,
5792,-0.0115967,0.0292297,
5794,-0.0140381,0.0292664,
5796,0.00183105,0.029248,
5798,-0.00488281,0.0292358,
5800,0,0.0288818,
5802,-0.00549316,0.0289307,
5804,0.078125,0.0291809,
5806,0.0964355,0.0299988,
5808,0.0439453,0.0302856,
5810,-0.0195313,0.0298706,
5812,-0.0732422,0.0304321,
5814,0.0714111,0.0309875,
5816,0.0195313,0.0307922,
5818,-0.0408936,0.0307434,
5820,-0.111694,0.0316162,
5822,-0.0811768,0.0323669,
5824,-0.0244141,0.0324646,
5826,-0.0128174,0.0323303,
5828,-0.0384521,0.0324951,
5830,-0.0280762,0.0323669,
5832,-0.00488281,0.0316833,
5834,0.0714111,0.032196,
5836,-0.0622559,0.0322815,
5838,0.0500488,0.0325012,
5840,0.0860596,0.0328613,
5842,0.0476074,0.0331909,
5844,0.00244141,0.0329102,
5846,-0.0616455,0.0329529,
5848,0.0421143,0.032428,
5850,-0.0402832,0.0323303,
5852,-0.0445557,0.0327576,
5854,-0.0628662,0.0331726,
5856,-0.100098,0.0341187,
5858,-0.0640869,0.0342224,
5860,-0.0408936,0.0343201,
5862,-0.00488281,0.0342529,
5864,-0.0183105,0.0343018,
5866,0.0549316,0.0345947,
5868,0.0238037,0.0343384,
5870,0.0115967,0.0342285,
5872,0.0323486,0.0345093,
5874,0.0286865,0.034729,
5876,-0.0115967,0.0343628,
5878,0.0128174,0.0342041,
5880,0.0323486,0.0344971,
5882,-0.0933838,0.0354126,
5884,-0.0189209,0.035144,
5886,-0.0506592,0.035614,
5888,-0.0280762,0.0358154,
5890,-0.0341797,0.0359863,
5892,-0.00610352,0.0356812,
5894,-0.00671387,0.0356689,
5896,0.0439453,0.0356934,
5898,0.0836182,0.035907,
5900,-0.03479,0.0358582,
5902,-0.0286865,0.035907,
5904,0.0219727,0.0360413,
5906,-0.0109863,0.0359558,
5908,-0.0128174,0.0358887,
5910,-0.0439453,0.0361206,
5912,0.0231934,0.0361145,
5914,-0.0946045,0.0364441,
5916,0.0256348,0.0364258,
5918,0.0152588,0.0365417,
5920,0.0598145,0.0364075,
5922,-0.0274658,0.0363831,
5924,-0.00610352,0.0360046,
5926,-0.00610352,0.0356079,
5928,-0.00854492,0.0356018,
5930,-0.0219727,0.035083,
5932,-0.03479,0.0347351,
5934,-0.0683594,0.0353333,
5936,0.0012207,0.0352234,
5938,0.0335693,0.0354004,
5940,-0.00488281,0.0353027,
5942,-0.012207,0.0349976,
5944,-0.0408936,0.0353455,
5946,0.0280762,0.0353027,
5948,0.0256348,0.0350769,
5950,0.0402832,0.0350037,
5952,0.0817871,0.0357727,
5954,0.098877,0.0361938,
5956,-0.0415039,0.0365234,
5958,-0.0714111,0.0370239,
5960,0.0750732,0.0372498,
5962,0.00488281,0.036731,
5964,-0.0408936,0.0368835,
5966,-0.0720215,0.0371338,
5968,-0.0653076,0.0375366,
5970,-0.0628662,0.0381409,
5972,-0.0323486,0.0381775,
5974,0.0244141,0.0376221,
5976,0.0952148,0.0380005,
5978,-0.012207,0.0378479,
5980,-0.0299072,0.0378967,
5982,0.0579834,0.0383728,
5984,-0.0177002,0.0384766,
5986,-0.0610352,0.0390747,
5988,-0.00305176,0.0388489,
5990,-0.0341797,0.0387024,
5992,-0.0592041,0.0391785,
5994,-0.0390625,0.0394287,
5996,-0.0286865,0.0396973,
5998,-0.0128174,0.0397766,
6000,-0.00793457,0.039856,
6002,0.00427246,0.0398437,
6004,-0.00305176,0.039093,
6006,0.0292969,0.0384216,
6008,0.0219727,0.0382019,
6010,0.0463867,0.0384705,
6012,0.0158691,0.0378967,
6014,-0.0512695,0.0376953,
6016,0.0158691,0.0376587,
6018,0.0274658,0.0375244,
6020,-0.00549316,0.0364624,
6022,-0.0549316,0.0362,
6024,-0.0634766,0.0365906,
6026,-0.0183105,0.0366455,
6028,0.00244141,0.0362854,
6030,-0.0128174,0.0361328,
6032,-0.00854492,0.0361694,
6034,0.0195313,0.0356506,
6036,0.043335,0.0354614,
6038,0.0170898,0.0351318,
6040,-0.0134277,0.0344055,
6042,-0.0164795,0.0340942,
6044,0.0177002,0.0342468,
6046,0.0256348,0.0338867,
6048,-0.0268555,0.0337341,
6050,0.0280762,0.0336121,
6052,-0.0616455,0.033783,
6054,-0.0189209,0.0333435,
6056,-0.00427246,0.0323853,
6058,-0.0213623,0.031958,
6060,-0.010376,0.0316528,
6062,-0.0152588,0.0317566,
6064,0.0274658,0.0318481,
6066,-0.0476074,0.0317749,
6068,-0.022583,0.0317627,
6070,0.00854492,0.0317322,
6072,0.0109863,0.0315186,
6074,0.0390625,0.0316223,
6076,0.0701904,0.0322083,
6078,0.131226,0.0333923,
6080,0.00793457,0.0331482,
6082,-0.00183105,0.0322327,
6084,-0.020752,0.032251,
6086,0.0109863,0.0318542,
6088,0.0152588,0.0317261,
6090,-0.0622559,0.0320068,
6092,-0.0939941,0.0328857,
6094,-0.0854492,0.0336731,
6096,-0.0683594,0.0339172,
6098,-0.0280762,0.0333618,
6100,0.00854492,0.0330994,
6102,0,0.0328125,
6104,0.00549316,0.0326477,
6106,0.0292969,0.0328308,
6108,-0.00366211,0.0327393,
6110,-0.0158691,0.0324585,
6112,-0.0158691,0.0323853,
6114,0.0158691,0.0315979,
6116,-0.0115967,0.0314575,
6118,-0.020752,0.0315125,
6120,-0.0244141,0.0311584,
6122,-0.0158691,0.0310425,
6124,-0.00732422,0.0310547,
6126,-0.00427246,0.0310364,
6128,-0.0109863,0.0310608,
6130,-0.000610352,0.0308472,
6132,0.0195313,0.0306946,
6134,0.010376,0.0301147,
6136,-0.00366211,0.0301392,
6138,0.00793457,0.0298828,
6140,0.00183105,0.0298523,
6142,0.045166,0.0301819,
6144,0.012207,0.029895,
6146,-0.00305176,0.0296448,
6148,0.00976563,0.0294861,
6150,0.00183105,0.0291016,
6152,-0.0164795,0.0284485,
6154,0.00793457,0.0275391,
6156,-0.00732422,0.0271973,
6158,-0.0384521,0.0268677,
6160,-0.00488281,0.0261658,
6162,0.00488281,0.0261658,
6164,-0.00366211,0.0257935,
6166,-0.00915527,0.0251648,
6168,0.0109863,0.0246216,
6170,0.0201416,0.0241943,
6172,0.020752,0.0240784,
6174,-0.0195313,0.0240295,
6176,0.00488281,0.0231262,
6178,-0.00244141,0.0230286,
6180,0.0177002,0.0229065,
6182,0.022583,0.0225525,
6184,0.00854492,0.0224609,
6186,0.0128174,0.0219788,
6188,0.0531006,0.0224792,
6190,0.0421143,0.0225586,
6192,0.00305176,0.0219971,
6194,-0.0512695,0.0221191,
6196,0.0115967,0.0219482,
6198,0.0366211,0.0221863,
6200,-0.0286865,0.0223938,
6202,-0.0769043,0.0231201,
6204,-0.0567627,0.0236572,
6206,-0.0158691,0.0235229,
6208,-0.0213623,0.0235168,
6210,-0.022583,0.0232788,
6212,-0.0292969,0.0234131,
6214,-0.0250244,0.0231506,
6216,-0.0244141,0.0232361,
6218,-0.0305176,0.0232666,
6220,-0.0115967,0.0233276,
6222,-0.00427246,0.022821,
6224,-0.0140381,0.0223267,
6226,-0.0109863,0.0222534,
6228,-0.010376,0.0223328,
6230,-0.00915527,0.0222961,
6232,0.0012207,0.0222229,
6234,-0.00671387,0.0220947,
6236,-0.000610352,0.0216675,
6238,0.00427246,0.0215393,
6240,0.00427246,0.0214478,
6242,0.00427246,0.0213257,
6244,0.00488281,0.0211975,
6246,0.0109863,0.021051,
6248,-0.00244141,0.0208069,
6250,0.00854492,0.0206116,
6252,-0.00305176,0.0200256,
6254,0.0140381,0.0199768,
6256,-0.00976563,0.0200317,
6258,-0.000610352,0.0198242,
6260,0.0189209,0.0199097,
6262,0.012207,0.0198792,
6264,0.0012207,0.0196167,
6266,0.0311279,0.0194519,
6268,0.0134277,0.0193604,
6270,-0.00366211,0.0193115,
6272,0.00305176,0.0192322,
6274,0.00793457,0.0189209,
6276,0.0732422,0.0189514,
6278,-0.0158691,0.0177979,
6280,-0.0427246,0.0181458,
6282,-0.00793457,0.0182068,
6284,0.0109863,0.0181091,
6286,0.00976563,0.0180969,
6288,-0.0158691,0.018103,
6290,-0.00976563,0.0175781,
6292,-0.0134277,0.0167725,
6294,-0.0146484,0.0160645,
6296,0.0109863,0.0154907,
6298,-0.0152588,0.0153625,
6300,0.00671387,0.0153442,
6302,-0.0213623,0.0155579,
6304,-0.022583,0.0157288,
6306,0.000610352,0.0154419,
6308,0.00549316,0.0154602,
6310,0.0115967,0.0154175,
6312,-0.0244141,0.0155029,
6314,0.0427246,0.0157715,
6316,-0.0012207,0.0156677,
6318,-0.000610352,0.0154663,
6320,0.00732422,0.0152954,
6322,0.0128174,0.0152649,
6324,-0.0219727,0.0154114,
6326,-0.0366211,0.0157349,
6328,-0.0231934,0.0158569,
6330,-0.0250244,0.0161011,
6332,-0.0341797,0.0162476,
6334,-0.00488281,0.0161926,
6336,-0.0146484,0.0163025,
6338,-0.0201416,0.0164246,
6340,-0.0360107,0.0167664,
6342,-0.010376,0.0164185,
6344,-0.00244141,0.0163208,
6346,-0.0134277,0.0164246,
6348,-0.0183105,0.01651,
6350,-0.0109863,0.0166016,
6352,-0.012207,0.0165588,
6354,-0.012207,0.0166016,
6356,0.0195313,0.0167236,
6358,-0.0109863,0.016449,
6360,0.0128174,0.0165283,
6362,0.0360107,0.0168396,
6364,0.00732422,0.0168762,
6366,-0.00244141,0.0168091,
6368,-0.0286865,0.0169861,
6370,0.0299072,0.0170837,
6372,0.0439453,0.0173157,
6374,0.0238037,0.0173584,
6376,0.00366211,0.0173462,
6378,-0.00549316,0.0173767,
6380,-0.0213623,0.0174133,
6382,0.065918,0.0178467,
6384,0.0445557,0.0182068,
6386,-0.0415039,0.0184937,
6388,-0.0286865,0.0182495,
6390,0.00244141,0.0178528,
6392,-0.0164795,0.0179871,
6394,-0.0494385,0.0179688,
6396,-0.0561523,0.0184143,
6398,-0.0115967,0.0181641,
6400,-0.0543213,0.0184204,
6402,-0.0476074,0.0181274,
6404,-0.0378418,0.0179382,
6406,-0.0500488,0.01828,
6408,-0.0305176,0.0183716,
6410,-0.0219727,0.0183655,
6412,-0.0109863,0.0181824,
6414,-0.00183105,0.0179504,
6416,-0.00793457,0.0177856,
6418,-0.0115967,0.0175964,
6420,-0.0183105,0.0176636,
6422,0.0231934,0.0178528,
6424,0.00488281,0.0177612,
6426,-0.00183105,0.0176697,
6428,-0.0128174,0.0176941,
6430,0.0250244,0.0178528,
6432,-0.0305176,0.0181458,
6434,-0.0115967,0.0181946,
6436,0.0012207,0.0182007,
6438,0.0323486,0.0184814,
6440,0.0518799,0.0189575,
6442,0.0286865,0.0192017,
6444,0.0195313,0.0193481,
6446,0.0292969,0.0195313,
6448,0.0506592,0.0200134,
6450,0.0616455,0.0205444,
6452,0.0286865,0.0208008,
6454,-0.00610352,0.0207214,
6456,-0.0531006,0.0211548,
6458,0.00732422,0.0212219,
6460,-0.0494385,0.0215271,
6462,-0.0476074,0.0218811,
6464,-0.0146484,0.0220154,
6466,-0.0305176,0.0220093,
6468,-0.0292969,0.022168,
6470,-0.0109863,0.0222412,
6472,-0.0244141,0.0224548,
6474,-0.00183105,0.0223938,
6476,-0.012207,0.0217834,
6478,-0.00915527,0.0217163,
6480,0.00366211,0.0213257,
6482,-0.0231934,0.0214783,
6484,-0.022583,0.0215942,
6486,0.00915527,0.0215881,
6488,0.00732422,0.0215027,
6490,0.0305176,0.0217102,
6492,0.0360107,0.021936,
6494,0.0189209,0.0219788,
6496,0.0646973,0.0225159,
6498,0.0268555,0.0226318,
6500,0.0231934,0.0227966,
6502,-0.00244141,0.0226074,
6504,0.03479,0.0227295,
6506,-0.0140381,0.0228638,
6508,-0.0189209,0.022998,
6510,-0.0262451,0.0231445,
6512,-0.00854492,0.0229858,
6514,-0.0128174,0.0226868,
6516,-0.00427246,0.0227173,
6518,0,0.0227112,
6520,-0.00793457,0.0227173,
6522,0.0244141,0.0228333,
6524,0.0109863,0.0227234,
6526,-0.0115967,0.0224731,
6528,0.032959,0.0225708,
6530,0.032959,0.0226501,
6532,-0.00976563,0.022406,
6534,-0.000610352,0.0223633,
6536,0.0439453,0.0226562,
6538,0.0268555,0.0227234,
6540,-0.0170898,0.0225342,
6542,-0.0146484,0.0225769,
6544,0.0531006,0.0230835,
6546,-0.00793457,0.0230286,
6548,-0.00305176,0.022876,
6550,-0.0012207,0.0227783,
6552,0.00610352,0.0227173,
6554,-0.00610352,0.0226562,
6556,-0.0109863,0.0225708,
6558,0.00671387,0.0225281,
6560,0.0164795,0.0225647,
6562,-0.00549316,0.0222595,
6564,-0.00305176,0.0222168,
6566,0.0286865,0.0224792,
6568,0.0219727,0.0224121,
6570,-0.00366211,0.0221497,
6572,0.00610352,0.0217712,
6574,0.0115967,0.0216492,
6576,-0.0109863,0.0217224,
6578,-0.0238037,0.0219055,
6580,0.00793457,0.0217712,
6582,-0.0177002,0.0212891,
6584,-0.012207,0.0209656,
6586,0.00183105,0.0205688,
6588,-0.0012207,0.0202942,
6590,0.00427246,0.0203125,
6592,0.0012207,0.0201599,
6594,0.00854492,0.019751,
6596,0.022583,0.0194153,
6598,0.0201416,0.0195007,
6600,-0.000610352,0.0189636,
6602,-0.0012207,0.0184998,
6604,-0.00671387,0.0181885,
6606,0.00305176,0.0177185,
6608,-0.00732422,0.0174866,
6610,-0.00488281,0.0173157,
6612,0.00915527,0.0172974,
6614,-0.00305176,0.0173096,
6616,0.0238037,0.0174683,
6618,0.0115967,0.0174683,
6620,-0.00427246,0.0173279,
6622,0.00427246,0.0171387,
6624,0.00732422,0.0171631,
6626,0.0146484,0.0172913,
6628,0.0012207,0.0171753,
6630,-0.0598145,0.0175232,
6632,-0.03479,0.0175659,
6634,0.0152588,0.0176025,
6636,-0.000610352,0.0175964,
6638,-0.0012207,0.0172852,
6640,-0.00183105,0.0167847,
6642,-0.00610352,0.0165588,
6644,0.0164795,0.0165283,
6646,0.0134277,0.0163696,
6648,0.0115967,0.015979,
6650,0.00488281,0.0154114,
6652,-0.020752,0.015332,
6654,0.00854492,0.0153564,
6656,-0.00427246,0.0148682,
6658,-0.0292969,0.0150879,
6660,-0.0134277,0.0147278,
6662,-0.0109863,0.0143616,
6664,-0.0201416,0.0144165,
6666,-0.00671387,0.0141785,
6668,-0.012207,0.0140076,
6670,0,0.0138977,
6672,-0.00488281,0.0137024,
6674,0.012207,0.0138062,
6676,-0.012207,0.0138062,
6678,-0.00610352,0.0137756,
6680,0.00793457,0.0138184,
6682,0.00793457,0.0136658,
6684,-0.0183105,0.013623,
6686,0.00976563,0.0136292,
6688,-0.00183105,0.0135742,
6690,0.022583,0.0134949,
6692,-0.0115967,0.0132507,
6694,0.0158691,0.0132202,
6696,0.000610352,0.0125793,
6698,0.00915527,0.0124023,
6700,-0.0128174,0.0122986,
6702,0.0238037,0.0125122,
6704,-0.00427246,0.012207,
6706,-0.020752,0.0122742,
6708,0.00915527,0.0121765,
6710,0.0195313,0.0121094,
6712,-0.00793457,0.0121033,
6714,0.00488281,0.0120239,
6716,0.032959,0.0123108,
6718,-0.020752,0.0125183,
6720,0.00915527,0.0125305,
6722,0.00732422,0.0123596,
6724,-0.00793457,0.0123291,
6726,0.0152588,0.0123657,
6728,-0.0170898,0.012207,
6730,-0.00488281,0.0119263,
6732,-0.00976563,0.0119263,
6734,0,0.0119202,
6736,0.00793457,0.0115601,
6738,0.00366211,0.0113281,
6740,-0.00610352,0.0112183,
6742,-0.0189209,0.011261,
6744,0.0286865,0.0110168,
6746,0.0140381,0.0110779,
6748,-0.00488281,0.0110962,
6750,-0.0183105,0.0112671,
6752,-0.000610352,0.0112122,
6754,0.022583,0.011377,
6756,-0.00915527,0.0113586,
6758,-0.00671387,0.0113586,
6760,-0.00793457,0.0112732,
6762,-0.010376,0.011322,
6764,0.0115967,0.0114075,
6766,0.0250244,0.0113708,
6768,-0.0146484,0.0112976,
6770,0.00427246,0.0113037,
6772,0.010376,0.0113464,
6774,0.00366211,0.0112671,
6776,-0.000610352,0.0111633,
6778,0.0012207,0.0109375,
6780,0.00915527,0.0109497,
6782,-0.00732422,0.0108459,
6784,0.00305176,0.0107544,
6786,0.00732422,0.0108093,
6788,0.00366211,0.0108337,
6790,-0.00183105,0.0108093,
6792,0.010376,0.0109009,
6794,-0.00488281,0.0108643,
6796,-0.0231934,0.0108704,
6798,0.0250244,0.0109192,
6800,0.00732422,0.0109863,
6802,-0.0262451,0.0112366,
6804,-0.00976563,0.0112671,
6806,0.0115967,0.0113525,
6808,-0.00976563,0.011377,
6810,0.0115967,0.0114441,
6812,0.00976563,0.0114502,
6814,-0.0177002,0.0115967,
6816,0.0396729,0.0117554,
6818,0.0146484,0.0117859,
6820,-0.00793457,0.0118225,
6822,-0.0012207,0.011792,
6824,0.00671387,0.0117859,
6826,0.00610352,0.0117004,
6828,-0.0115967,0.0118042,
6830,-0.00793457,0.0112854,
6832,-0.0146484,0.011084,
6834,-0.0292969,0.0112244,
6836,0.00915527,0.0113098,
6838,-0.012207,0.0114197,
6840,-0.0317383,0.0117188,
6842,0.00305176,0.0116882,
6844,-0.0231934,0.0117554,
6846,-0.00854492,0.0117065,
6848,-0.00976563,0.0116882,
6850,-0.0219727,0.0118591,
6852,-0.012207,0.0117737,
6854,-0.00976563,0.0117859,
6856,-0.00732422,0.0118164,
6858,-0.00183105,0.0115417,
6860,-0.00549316,0.0114624,
6862,-0.00183105,0.0113708,
6864,0.0012207,0.0111816,
6866,-0.0158691,0.0112732,
6868,0.0115967,0.0112671,
6870,-0.0012207,0.0112793,
6872,-0.00732422,0.0113037,
6874,-0.0177002,0.0113586,
6876,-0.000610352,0.0112427,
6878,-0.0128174,0.0113098,
6880,-0.00305176,0.011261,
6882,0.00244141,0.0112061,
6884,-0.00488281,0.0110718,
6886,0.00183105,0.0109924,
6888,-0.00488281,0.0110229,
6890,-0.00610352,0.0108582,
6892,0.0164795,0.010907,
6894,-0.00305176,0.0107788,
6896,-0.0231934,0.0110046,
6898,-0.010376,0.0110168,
6900,-0.00305176,0.0109192,
6902,-0.00305176,0.0107117,
6904,-0.0335693,0.0110046,
6906,-0.012207,0.0109192,
6908,0.000610352,0.0108337,
6910,-0.00976563,0.0107361,
6912,-0.0012207,0.0106689,
6914,0.00305176,0.0106506,
6916,-0.0134277,0.0104553,
6918,-0.00488281,0.0102966,
6920,0.0140381,0.0103455,
6922,-0.0134277,0.0104065,
6924,-0.0164795,0.0104919,
6926,-0.0152588,0.0104919,
6928,0.000610352,0.0103271,
6930,-0.00366211,0.0103149,
6932,-0.00305176,0.0102478,
6934,-0.010376,0.0103516,
6936,-0.0134277,0.0104065,
6938,0.00793457,0.0104492,
6940,-0.00183105,0.0104065,
6942,0.00915527,0.0103088,
6944,-0.0140381,0.0101624,
6946,-0.0134277,0.0101563,
6948,-0.0140381,0.0102478,
6950,-0.000610352,0.0100708,
6952,-0.0140381,0.0102051,
6954,0.00244141,0.0100037,
6956,-0.00305176,0.00994263,
6958,-0.00732422,0.00994873,
6960,-0.00793457,0.00994873,
6962,-0.0128174,0.00997314,
6964,0.0146484,0.0100037,
6966,0.0164795,0.00991821,
6968,-0.00183105,0.00979004,
6970,-0.0195313,0.00994263,
6972,0.00854492,0.00992432,
6974,0.0360107,0.0102478,
6976,-0.0250244,0.0104919,
6978,-0.0213623,0.0106934,
6980,0.00793457,0.0106812,
6982,0.00732422,0.0106812,
6984,-0.00915527,0.0107422,
6986,-0.0183105,0.0108521,
6988,-0.0231934,0.0110474,
6990,-0.00366211,0.0110657,
6992,0.00671387,0.0110291,
6994,-0.0292969,0.0112732,
6996,-0.0158691,0.0112,
6998,0.0128174,0.0110779,
7000,-0.0134277,0.0111389,
7002,-0.0012207,0.0108887,
7004,-0.00183105,0.0108093,
7006,-0.00366211,0.01073,
7008,0.00732422,0.0107056,
7010,0.00732422,0.0106628,
7012,-0.00305176,0.0105957,
7014,-0.00549316,0.0104736,
7016,0.00183105,0.0100952,
7018,0,0.00994873,
7020,-0.0158691,0.0100281,
7022,-0.00610352,0.0100769,
7024,0.000610352,0.0100159,
7026,-0.0128174,0.010083,
7028,-0.00732422,0.0100403,
7030,-0.00305176,0.00999146,
7032,-0.00244141,0.00986938,
7034,-0.000610352,0.00958252,
7036,0.0183105,0.00967407,
7038,-0.00488281,0.00960083,
7040,0.000610352,0.00928955,
7042,0.0183105,0.00944214,
7044,-0.000610352,0.00921631,
7046,0.00793457,0.00921021,
7048,0.0262451,0.009375,
7050,-0.00183105,0.00917358,
7052,-0.0286865,0.00933838,
7054,0.00305176,0.00927124,
7056,0.00976563,0.00929565,
7058,-0.00793457,0.00935669,
7060,-0.00976563,0.00939941,
7062,-0.0231934,0.00961304,
7064,-0.0140381,0.00974121,
7066,-0.00305176,0.00961304,
7068,-0.0140381,0.00963745,
7070,-0.0128174,0.00975342,
7072,-0.00549316,0.00973511,
7074,-0.010376,0.00966187,
7076,-0.00854492,0.00974121,
7078,-0.00854492,0.00969849,
7080,-0.012207,0.00979004,
7082,0.0012207,0.00977783,
7084,-0.00671387,0.00979614,
7086,-0.0109863,0.0098877,
7088,-0.00244141,0.00986328,
7090,-0.0115967,0.00991821,
7092,-0.012207,0.00987549,
7094,-0.010376,0.00994873,
7096,-0.00427246,0.00975952,
7098,-0.00915527,0.00974731,
7100,0.000610352,0.0097229,
7102,-0.0183105,0.00987549,
7104,-0.010376,0.00964355,
7106,-0.0012207,0.00953369,
7108,-0.00244141,0.009552,
7110,0.00610352,0.00951538,
7112,0.00244141,0.00952759,
7114,-0.00549316,0.009552,
7116,-0.0250244,0.00966797,
7118,-0.00793457,0.00969849,
7120,-0.00671387,0.00962524,
7122,0.00183105,0.00950928,
7124,-0.0134277,0.00947876,
7126,-0.0170898,0.00949707,
7128,-0.00854492,0.00957642,
7130,0.00488281,0.00958862,
7132,-0.000610352,0.00956421,
7134,0.00976563,0.00955811,
7136,0.0238037,0.00966187,
7138,-0.0109863,0.00969238,
7140,-0.010376,0.00977783,
7142,-0.000610352,0.00969238,
7144,0,0.009552,
7146,-0.00427246,0.00946045,
7148,-0.020752,0.00952759,
7150,-0.0231934,0.00975342,
7152,-0.00915527,0.00970459,
7154,-0.00183105,0.00969849,
7156,0.00549316,0.0097229,
7158,-0.0146484,0.00979614,
7160,-0.00793457,0.00979614,
7162,0.00244141,0.00969238,
7164,0.0152588,0.00969849,
7166,-0.0378418,0.00991211,
7168,-0.0146484,0.0100403,
7170,0.000610352,0.00985107,
7172,-0.0219727,0.00998535,
7174,-0.0219727,0.00984497,
7176,0,0.00959473,
7178,-0.0152588,0.00953369,
7180,-0.0286865,0.00974121,
7182,0.0164795,0.00983276,
7184,-0.00793457,0.00982056,
7186,-0.010376,0.00974121,
7188,-0.00427246,0.009552,
7190,-0.00488281,0.00956421,
7192,-0.00610352,0.00955811,
7194,-0.00244141,0.00928955,
7196,-0.00183105,0.00914917,
7198,-0.0140381,0.00916138,
7200,-0.00488281,0.00907593,
7202,-0.0164795,0.00922852,
7204,-0.00915527,0.00930176,
7206,0.000610352,0.00927124,
7208,-0.00976563,0.00929565,
7210,-0.0183105,0.00940552,
7212,0.00915527,0.00946655,
7214,0,0.00941162,
7216,0.00732422,0.00946655,
7218,0.00366211,0.00950317,
7220,0.0012207,0.00935669,
7222,0.00610352,0.00935669,
7224,-0.00366211,0.00938721,
7226,0.0152588,0.00941162,
7228,0,0.00933838,
7230,-0.0158691,0.00946655,
7232,-0.00732422,0.00951538,
7234,-0.00854492,0.00959473,
7236,-0.000610352,0.00941772,
7238,-0.00305176,0.00939941,
7240,-0.0280762,0.00967407,
7242,-0.0152588,0.00964355,
7244,-0.0128174,0.00976563,
7246,0.00854492,0.00977173,
7248,-0.00427246,0.009552,
7250,0.00305176,0.00956421,
7252,-0.00244141,0.00930176,
7254,-0.00732422,0.00934448,
7256,0.00671387,0.00931396,
7258,-0.0164795,0.00939941,
7260,-0.00671387,0.0093689,
7262,-0.0219727,0.00935669,
7264,-0.012207,0.00933838,
7266,-0.0378418,0.00968628,
7268,-0.0152588,0.00969849,
7270,-0.00427246,0.00961304,
7272,-0.0177002,0.00973511,
7274,-0.00854492,0.0097168,
7276,0.00244141,0.00965576,
7278,0,0.00957031,
7280,-0.00732422,0.00952148,
7282,-0.0109863,0.00961914,
7284,0.000610352,0.00955811,
7286,-0.00854492,0.00953369,
7288,-0.0128174,0.00963745,
7290,-0.00976563,0.00961914,
7292,-0.00793457,0.00957642,
7294,-0.0134277,0.00960693,
7296,-0.0195313,0.00975952,
7298,-0.00976563,0.00976563,
7300,-0.010376,0.00986328,
7302,-0.0109863,0.00979004,
7304,-0.00915527,0.00977783,
7306,0,0.00976563,
7308,-0.0140381,0.00988159,
7310,-0.00915527,0.00991211,
7312,-0.00305176,0.00991821,
7314,-0.00671387,0.00993042,
7316,0.010376,0.00978394,
7318,-0.00854492,0.00979004,
7320,-0.00244141,0.00974731,
7322,-0.012207,0.00985107,
7324,0.0164795,0.00988159,
7326,-0.00305176,0.00974121,
7328,0.0158691,0.00981445,
7330,-0.0170898,0.00993652,
7332,-0.010376,0.0100342,
7334,-0.00427246,0.00997925,
7336,-0.0311279,0.0100525,
7338,-0.0170898,0.0101135,
7340,-0.00610352,0.0100708,
7342,-0.0311279,0.010376,
7344,-0.0256348,0.0106323,
7346,-0.020752,0.0107971,
7348,-0.0170898,0.0107605,
7350,-0.00854492,0.010614,
7352,-0.00183105,0.0105408,
7354,-0.000610352,0.0105286,
7356,-0.0146484,0.0106201,
7358,-0.0109863,0.0105835,
7360,-0.0109863,0.010614,
7362,-0.00793457,0.0106689,
7364,-0.0115967,0.0106323,
7366,0.00183105,0.0102722,
7368,-0.00976563,0.0102234,
7370,-0.010376,0.010321,
7372,-0.00610352,0.0101624,
7374,-0.0109863,0.0100525,
7376,-0.00732422,0.0101257,
7378,-0.00671387,0.0100403,
7380,-0.0128174,0.00988159,
7382,-0.0012207,0.009729,
7384,-0.0201416,0.00985107,
7386,-0.0146484,0.0098938,
7388,0.00183105,0.00986938,
7390,-0.00488281,0.00986938,
7392,-0.00671387,0.00987549,
7394,0.00244141,0.00987549,
7396,0.000610352,0.00986328,
7398,-0.00244141,0.00974731,
7400,-0.00732422,0.00977173,
7402,0.000610352,0.00961304,
7404,0.0012207,0.00953369,
7406,0,0.00952759,
7408,-0.010376,0.00953369,
7410,-0.00610352,0.00941162,
7412,-0.0012207,0.00933228,
7414,0.00915527,0.00942383,
7416,-0.0012207,0.00936279,
7418,-0.0128174,0.00945435,
7420,0.0128174,0.00957031,
7422,-0.010376,0.00961304,
7424,-0.010376,0.00968018,
7426,-0.00366211,0.00956421,
7428,0.00427246,0.00960693,
7430,-0.0250244,0.00969849,
7432,-0.0158691,0.00978394,
7434,-0.0146484,0.00984497,
7436,0.00854492,0.00992432,
7438,-0.00793457,0.00997314,
7440,0.00854492,0.00977783,
7442,-0.0158691,0.00978394,
7444,-0.0158691,0.00981445,
7446,-0.0201416,0.00993042,
7448,0.000610352,0.0098938,
7450,-0.0195313,0.0100586,
7452,-0.0109863,0.010144,
7454,-0.0164795,0.0102356,
7456,-0.0152588,0.010321,
7458,-0.0140381,0.0102966,
7460,0.00671387,0.0102966,
7462,0.00488281,0.0101257,
7464,-0.0164795,0.0101685,
7466,-0.00610352,0.00985107,
7468,-0.0012207,0.00971069,
7470,-0.00610352,0.009729,
7472,-0.0158691,0.00971069,
7474,-0.0128174,0.00975342,
7476,-0.00732422,0.00980225,
7478,-0.0189209,0.00999146,
7480,-0.000610352,0.00992432,
7482,-0.00610352,0.00987549,
7484,-0.00793457,0.00994873,
7486,-0.00610352,0.00992432,
7488,-0.00488281,0.00984497,
7490,-0.00915527,0.00983887,
7492,-0.00488281,0.00980835,
7494,0.00366211,0.00971069,
7496,-0.0134277,0.00964966,
7498,-0.00732422,0.00962524,
7500,-0.00488281,0.00957031,
7502,0.00793457,0.00953979,
7504,0.00488281,0.00949707,
7506,-0.00305176,0.00952759,
7508,-0.00549316,0.00944214,
7510,0.00976563,0.00944824,
7512,-0.00549316,0.00947266,
7514,-0.012207,0.00952759,
7516,0.000610352,0.00942993,
7518,-0.00427246,0.00938721,
7520,-0.0183105,0.0095459,
7522,-0.0115967,0.00953979,
7524,-0.0183105,0.00955811,
7526,-0.0109863,0.00963745,
7528,-0.0183105,0.00966187,
7530,0.00427246,0.00953369,
7532,-0.00427246,0.00947266,
7534,-0.0274658,0.00970459,
7536,0.00488281,0.00944214,
7538,-0.0177002,0.00944824,
7540,0.00244141,0.00941162,
7542,-0.0109863,0.00921021,
7544,-0.022583,0.00917969,
7546,-0.00793457,0.00905151,
7548,-0.0109863,0.00899048,
7550,-0.0201416,0.00910645,
7552,-0.00732422,0.00916138,
7554,-0.0158691,0.00931396,
7556,-0.0134277,0.00930176,
7558,-0.00549316,0.00924683,
7560,-0.0152588,0.00928955,
7562,-0.0128174,0.00933838,
7564,-0.00427246,0.00926514,
7566,0,0.00924683,
7568,0.00366211,0.00918579,
7570,-0.00549316,0.00913696,
7572,0.0231934,0.00930786,
7574,-0.0335693,0.00953369,
7576,-0.0109863,0.00957031,
7578,-0.00183105,0.00952148,
7580,-0.00732422,0.00946655,
7582,-0.022583,0.00968018,
7584,-0.0189209,0.00966797,
7586,-0.0219727,0.00974121,
7588,-0.0158691,0.00988159,
7590,-0.00305176,0.00986328,
7592,-0.00305176,0.00982666,
7594,-0.00671387,0.00986938,
7596,-0.0128174,0.00999146,
7598,-0.022583,0.0101929,
7600,0.00732422,0.0101929,
7602,0.0012207,0.010199,
7604,-0.0201416,0.0103882,
7606,-0.00854492,0.0104736,
7608,-0.00366211,0.0104065,
7610,-0.00366211,0.0103821,
7612,0.020752,0.0105774,
7614,0.00488281,0.0105347,
7616,-0.00671387,0.0105896,
7618,-0.00488281,0.0105103,
7620,-0.0115967,0.010498,
7622,-0.00305176,0.0104248,
7624,-0.0231934,0.010553,
7626,-0.0152588,0.0106689,
7628,-0.0231934,0.0108582,
7630,-0.0146484,0.0107544,
7632,-0.0372314,0.010968,
7634,-0.0170898,0.0109924,
7636,-0.00549316,0.0109619,
7638,-0.000610352,0.0108887,
7640,-0.0134277,0.0109375,
7642,-0.00366211,0.0108154,
7644,-0.00305176,0.0106873,
7646,-0.00244141,0.0105103,
7648,-0.00183105,0.0105225,
7650,-0.00244141,0.0103516,
7652,0.0012207,0.0102539,
7654,-0.00610352,0.0101501,
7656,-0.0231934,0.0102295,
7658,0.000610352,0.0100952,
7660,-0.00732422,0.0101013,
7662,-0.0177002,0.0102295,
7664,-0.012207,0.0101868,
7666,-0.0170898,0.0102966,
7668,-0.00915527,0.010376,
7670,-0.0146484,0.0104614,
7672,-0.00427246,0.0103455,
7674,-0.0183105,0.0104004,
7676,-0.0262451,0.0105896,
7678,0.0134277,0.0105347,
7680,0.00244141,0.010553,
7682,-0.022583,0.0107178,
7684,-0.00488281,0.0106873,
7686,-0.00183105,0.0106445,
7688,0.00549316,0.0106506,
7690,0.000610352,0.0105652,
7692,-0.00488281,0.0105652,
7694,-0.00915527,0.0106201,
7696,-0.00854492,0.0105713,
7698,-0.0140381,0.0106384,
7700,0.00732422,0.0106628,
7702,0,0.0105835,
7704,-0.0286865,0.0108215,
7706,-0.00610352,0.0108521,
7708,-0.0164795,0.0109619,
7710,0.00305176,0.0108948,
7712,0.00671387,0.010907,
7714,-0.010376,0.0108887,
7716,-0.022583,0.0111084,
7718,0.00427246,0.0111084,
7720,-0.00793457,0.0110046,
7722,-0.00671387,0.0109558,
7724,0.000610352,0.0107788,
7726,-0.0286865,0.0109558,
7728,-0.0115967,0.0108887,
7730,-0.00549316,0.0109009,
7732,-0.0213623,0.0110718,
7734,-0.0109863,0.010907,
7736,-0.00427246,0.0109009,
7738,-0.00854492,0.0108093,
7740,-0.0244141,0.0110291,
7742,-0.0109863,0.0110291,
7744,-0.0158691,0.0109619,
7746,-0.0134277,0.0110168,
7748,-0.00366211,0.0109436,
7750,-0.00915527,0.0108337,
7752,-0.00732422,0.0108337,
7754,0.00915527,0.0107666,
7756,-0.00549316,0.0106873,
7758,-0.00610352,0.0106934,
7760,0.0115967,0.0106567,
7762,-0.0128174,0.0106567,
7764,0.00366211,0.0106506,
7766,-0.0183105,0.0108337,
7768,-0.0128174,0.0109253,
7770,-0.022583,0.0110962,
7772,-0.0158691,0.0110229,
7774,-0.0201416,0.0108887,
7776,-0.00610352,0.0108398,
7778,-0.00915527,0.0109131,
7780,-0.00366211,0.0108765,
7782,0.0140381,0.010791,
7784,-0.00915527,0.0106934,
7786,0.00732422,0.0105469,
7788,0.00305176,0.0104187,
7790,0.0201416,0.0105896,
7792,-0.0268555,0.0108276,
7794,-0.00610352,0.0108215,
7796,0.0213623,0.010907,
7798,-0.0152588,0.0108337,
7800,-0.0170898,0.0109314,
7802,-0.00671387,0.0109863,
7804,-0.0109863,0.0108948,
7806,0.00976563,0.010907,
7808,-0.0109863,0.0109802,
7810,-0.00915527,0.0110352,
7812,-0.00244141,0.0108521,
7814,-0.0177002,0.0109802,
7816,-0.010376,0.0110168,
7818,-0.0109863,0.0110779,
7820,-0.0140381,0.0111023,
7822,-0.00915527,0.0111633,
7824,-0.0177002,0.0111084,
7826,-0.010376,0.0110596,
7828,0.00732422,0.0109009,
7830,-0.0109863,0.0108643,
7832,-0.00854492,0.0105774,
7834,-0.00610352,0.0104675,
7836,0.00793457,0.0104919,
7838,-0.00610352,0.0105469,
7840,-0.000610352,0.0104187,
7842,-0.00610352,0.0104431,
7844,0.00915527,0.0105042,
7846,-0.0128174,0.0106079,
7848,-0.00854492,0.010675,
7850,-0.00427246,0.0106934,
7852,-0.00610352,0.0107422,
7854,-0.012207,0.0108032,
7856,-0.000610352,0.0105774,
7858,-0.0177002,0.0107483,
7860,-0.0115967,0.010791,
7862,0.0115967,0.01073,
7864,-0.000610352,0.010614,
7866,0.00549316,0.010498,
7868,0.00549316,0.0104614,
7870,-0.00244141,0.0103394,
7872,0.0158691,0.0104553,
7874,-0.00671387,0.0103394,
7876,-0.00244141,0.0101013,
7878,-0.0109863,0.0100769,
7880,-0.0170898,0.0102234,
7882,-0.0158691,0.0101563,
7884,-0.0152588,0.01026,
7886,0,0.0102417,
7888,-0.0140381,0.0103271,
7890,-0.0299072,0.0106201,
7892,-0.0109863,0.0106812,
7894,0.012207,0.0107117,
7896,-0.0231934,0.0108582,
7898,0.000610352,0.0107239,
7900,-0.00610352,0.0107117,
7902,-0.00854492,0.0107971,
7904,-0.00427246,0.010553,
7906,0.00366211,0.0105286,
7908,-0.00732422,0.010437,
7910,-0.0140381,0.0105469,
7912,0.0012207,0.0104919,
7914,-0.00366211,0.0104248,
7916,0.0012207,0.0102112,
7918,-0.010376,0.0102722,
7920,-0.012207,0.0103149,
7922,-0.00793457,0.0103271,
7924,-0.00488281,0.0103699,
7926,-0.0140381,0.0102234,
7928,-0.00854492,0.0101929,
7930,-0.0128174,0.0102661,
7932,-0.0128174,0.0101807,
7934,-0.00427246,0.0101135,
7936,-0.0140381,0.0102112,
7938,-0.00305176,0.0101563,
7940,0.00244141,0.00993652,
7942,0.00183105,0.00984497,
7944,-0.00488281,0.00973511,
7946,-0.0012207,0.00961304,
7948,-0.0219727,0.00979614,
7950,0.0152588,0.00985718,
7952,0.00976563,0.00988159,
7954,0.0115967,0.00990601,
7956,-0.0152588,0.0100037,
7958,-0.00427246,0.00998535,
7960,-0.010376,0.00997314,
7962,0.00671387,0.00991211,
7964,-0.0170898,0.0100464,
7966,-0.0164795,0.0100281,
7968,-0.0268555,0.0101685,
7970,-0.0109863,0.0100525,
7972,-0.020752,0.0101013,
7974,-0.0140381,0.0100403,
7976,0.00366211,0.0100159,
7978,-0.00610352,0.00998535,
7980,0,0.00994873,
7982,-0.00854492,0.0098938,
7984,-0.0177002,0.00997925,
7986,0.00671387,0.00997314,
7988,0.010376,0.0100464,
7990,-0.0268555,0.0101135,
7992,-0.0189209,0.0100342,
7994,0,0.00997314,
7996,0.00244141,0.00978394,
7998,-0.00854492,0.0097168,
8000,-0.00366211,0.00958252,
8002,0,0.00951538,
8004,-0.00427246,0.00944824,
8006,-0.00793457,0.00942993,
8008,-0.010376,0.00942383,
8010,0.000610352,0.00933838,
8012,-0.010376,0.00941772,
8014,-0.00549316,0.00929565,
8016,0.00305176,0.00922241,
8018,-0.0128174,0.00924072,
8020,0.00427246,0.00914307,
8022,0.00427246,0.00909424,
8024,-0.010376,0.009021,
8026,-0.0128174,0.00904541,
8028,0.00915527,0.00906372,
8030,0.010376,0.00905762,
8032,-0.0115967,0.00908813,
8034,-0.00854492,0.00911255,
8036,0.00549316,0.00908813,
8038,-0.00732422,0.00910034,
8040,-0.0177002,0.00927124,
8042,-0.00244141,0.00923462,
8044,-0.010376,0.00924683,
8046,-0.0201416,0.00932007,
8048,-0.0128174,0.00936279,
8050,0.00488281,0.0093689,
8052,-0.00305176,0.00933838,
8054,-0.00976563,0.00931396,
8056,0.00549316,0.00936279,
8058,-0.00549316,0.00924072,
8060,-0.00793457,0.0092041,
8062,0.0115967,0.0092041,
8064,-0.00854492,0.00928345,
8066,-0.0140381,0.0093689,
8068,-0.0115967,0.00942993,
8070,-0.020752,0.00961304,
8072,-0.010376,0.00955811,
8074,-0.0134277,0.00962524,
8076,-0.00732422,0.00967407,
8078,-0.00732422,0.00963745,
8080,-0.0109863,0.00957642,
8082,-0.00183105,0.00943604,
8084,-0.010376,0.00938721,
8086,0.00244141,0.00941162,
8088,-0.0012207,0.00928345,
8090,0.00488281,0.0090332,
8092,0.00183105,0.00894165,
8094,-0.00244141,0.00884399,
8096,-0.0109863,0.00872192,
8098,0.00976563,0.00881348,
8100,-0.0109863,0.0088623,
8102,-0.0140381,0.00891724,
8104,-0.00488281,0.00892334,
8106,-0.0128174,0.00901489,
8108,-0.00183105,0.00895996,
8110,-0.0146484,0.00896606,
8112,-0.0115967,0.00906982,
8114,-0.00793457,0.00911255,
8116,-0.0146484,0.00924683,
8118,-0.010376,0.00924683,
8120,-0.00793457,0.0092041,
8122,-0.00854492,0.00921021,
8124,-0.0244141,0.00940552,
8126,-0.00854492,0.00935059,
8128,-0.000610352,0.00927124,
8130,-0.00976563,0.00924072,
8132,0.000610352,0.00911865,
8134,-0.0177002,0.00925293,
8136,-0.0012207,0.00912476,
8138,0.0152588,0.00924683,
8140,-0.00671387,0.00928955,
8142,-0.0274658,0.0095459,
8144,-0.00183105,0.00951538,
8146,0.00244141,0.00952759,
8148,-0.0158691,0.00946655,
8150,-0.0189209,0.00950317,
8152,-0.00488281,0.00945435,
8154,0.00305176,0.0093689,
8156,0.000610352,0.00922241,
8158,-0.0115967,0.00929565,
8160,-0.00854492,0.00927734,
8162,0.00671387,0.00927734,
8164,-0.0170898,0.00927734,
8166,-0.00183105,0.00913086,
8168,-0.00671387,0.00892944,
8170,-0.010376,0.00892334,
8172,-0.0158691,0.00887451,
8174,-0.0231934,0.00896606,
8176,-0.00793457,0.00900879,
8178,-0.00610352,0.00900879,
8180,-0.00305176,0.00903931,
8182,-0.0170898,0.00912476,
8184,-0.00305176,0.00897827,
8186,0.0012207,0.00892334,
8188,0.0115967,0.00893555,
8190,-0.00671387,0.00873413,
8192,-0.0134277,0.0086792,
8194,-0.012207,0.00880127,
8196,0.00305176,0.00880737,
8198,-0.00976563,0.00881958,
8200,-0.0183105,0.00896606,
8202,-0.00732422,0.00903931,
8204,-0.00427246,0.00903931,
8206,-0.022583,0.00918579,
8208,-0.022583,0.00930786,
8210,0.0158691,0.00946045,
8212,-0.00183105,0.009375,
8214,-0.0134277,0.00945435,
8216,0.0134277,0.00955811,
8218,0.00427246,0.00947266,
8220,-0.00244141,0.00945435,
8222,0.00793457,0.00949097,
8224,-0.0170898,0.00955811,
8226,0.00610352,0.00949097,
8228,0.00427246,0.00944214,
8230,-0.0109863,0.00944824,
8232,-0.0134277,0.00946655,
8234,-0.0134277,0.00951538,
8236,-0.0189209,0.00964966,
8238,-0.0115967,0.00969238,
8240,-0.00976563,0.00961304,
8242,-0.000610352,0.00959473,
8244,-0.0189209,0.00968018,
8246,-0.0128174,0.00960693,
8248,-0.00671387,0.0095459,
8250,0.00183105,0.00951538,
8252,-0.00488281,0.00953369,
8254,-0.00244141,0.00946045,
8256,-0.0115967,0.00952148,
8258,-0.00427246,0.00950928,
8260,-0.00976563,0.00952759,
8262,-0.0158691,0.00957031,
8264,-0.00732422,0.00955811,
8266,0.00488281,0.00946655,
8268,-0.00854492,0.00943604,
8270,-0.0201416,0.00942993,
8272,-0.0140381,0.00946655,
8274,0.00427246,0.009375,
8276,0.00854492,0.00938721,
8278,-0.0140381,0.00945435,
8280,-0.00732422,0.00941772,
8282,-0.0115967,0.00951538,
8284,-0.00610352,0.00947266,
8286,-0.00305176,0.00947876,
8288,-0.012207,0.00958862,
8290,-0.00549316,0.00959473,
8292,-0.00244141,0.00960083,
8294,-0.0164795,0.00974121,
8296,-0.00549316,0.00968628,
8298,0.000610352,0.00959473,
8300,-0.0140381,0.00962524,
8302,0.0189209,0.00967407,
8304,0.00610352,0.00968628,
8306,-0.0311279,0.00986938,
8308,-0.000610352,0.00985718,
8310,0.00854492,0.00979614,
8312,-0.00671387,0.00974731,
8314,-0.010376,0.00977173,
8316,-0.00854492,0.00971069,
8318,-0.0115967,0.0097229,
8320,-0.0195313,0.00983887,
8322,-0.0140381,0.0098938,
8324,-0.0140381,0.00979004,
8326,-0.0140381,0.00984497,
8328,-0.0262451,0.0101013,
8330,0.00610352,0.0100647,
8332,-0.0109863,0.0101685,
8334,-0.0201416,0.0101929,
8336,-0.0012207,0.0101929,
8338,-0.00732422,0.0101135,
8340,-0.000610352,0.0100525,
8342,0.0012207,0.00979004,
8344,-0.00427246,0.00981445,
8346,-0.0128174,0.00991821,
8348,-0.00854492,0.00984497,
8350,-0.0134277,0.00979004,
8352,-0.00671387,0.00980835,
8354,-0.0128174,0.00990601,
8356,-0.00854492,0.00998535,
8358,-0.00427246,0.00991211,
8360,-0.00244141,0.00985107,
8362,-0.00976563,0.00988159,
8364,0.00793457,0.00979004,
8366,-0.0012207,0.00978394,
8368,-0.0134277,0.00985107,
8370,0.00427246,0.00979004,
8372,-0.00366211,0.00966797,
8374,0.000610352,0.00944214,
8376,-0.000610352,0.0093689,
8378,0.012207,0.00942993,
8380,-0.0183105,0.00958252,
8382,-0.0128174,0.00953979,
8384,0.00915527,0.00960083,
8386,0.00183105,0.00960693,
8388,-0.022583,0.0097168,
8390,-0.0140381,0.00979004,
8392,-0.00427246,0.00969849,
8394,-0.020752,0.00978394,
8396,-0.0134277,0.0098877,
8398,-0.00366211,0.00982666,
8400,-0.00427246,0.00968628,
8402,0.00305176,0.00964355,
8404,-0.00976563,0.00969849,
8406,-0.00671387,0.00953979,
8408,0.00427246,0.00935669,
8410,0.00366211,0.00923462,
8412,-0.00610352,0.00927734,
8414,-0.032959,0.00947266,
8416,-0.00549316,0.00939331,
8418,0.0012207,0.00936279,
8420,-0.00854492,0.00942383,
8422,-0.0134277,0.00947876,
8424,-0.0323486,0.00963135,
8426,0.0115967,0.00968628,
