Stephany-C-Musc-ABC-L01
Gráfico creado el:2026-06-05 13:11:27.789
Registro en:2026-06-05 13:13:48.810
2 mseg/muestras
2 canales
EMG
mV
EMG Integrado
mV-sec
milliSec,CH1,CH40,
,281512 samples,281512 samples,
0,-0.0109863,0.000109863,
2,-0.00488281,0.000158691,
4,-0.00915527,0.000250244,
6,-0.00793457,0.00032959,
8,-0.00976563,0.000427246,
10,-0.0164795,0.000592041,
12,-0.0012207,0.000604248,
14,-0.020752,0.000811768,
16,0,0.000811768,
18,-0.0158691,0.000970459,
20,-0.0146484,0.00111694,
22,0.0012207,0.00112915,
24,-0.00976563,0.00122681,
26,-0.00793457,0.00130615,
28,0.00305176,0.00133667,
30,-0.0152588,0.00148926,
32,-0.00549316,0.00154419,
34,0.00427246,0.00158691,
36,-0.0195313,0.00178223,
38,-0.0177002,0.00195923,
40,0.00610352,0.00202026,
42,-0.00793457,0.00209961,
44,-0.0201416,0.00230103,
46,-0.00427246,0.00234375,
48,-0.00732422,0.00241699,
50,-0.00183105,0.0024353,
52,-0.00305176,0.00246582,
54,-0.00976563,0.00256348,
56,-0.00366211,0.0026001,
58,-0.00793457,0.00267944,
60,-0.000610352,0.00268555,
62,0.00610352,0.00274658,
64,-0.0115967,0.00286255,
66,-0.010376,0.00296631,
68,0.00244141,0.00299072,
70,-0.020752,0.00319824,
72,0.00366211,0.00323486,
74,-0.00183105,0.00325317,
76,-0.00854492,0.00333862,
78,-0.00915527,0.00343018,
80,-0.0128174,0.00355835,
82,-0.00183105,0.00357666,
84,-0.00976563,0.00367432,
86,-0.0128174,0.00380249,
88,-0.0012207,0.0038147,
90,-0.0158691,0.00397339,
92,-0.00366211,0.00401001,
94,-0.00976563,0.00410767,
96,-0.00488281,0.00415649,
98,-0.00915527,0.00424805,
100,-0.00183105,0.00426636,
102,-0.00427246,0.00430908,
104,0.00488281,0.00435791,
106,-0.00854492,0.00444336,
108,-0.00671387,0.0045105,
110,-0.0012207,0.00452271,
112,-0.0012207,0.00453491,
114,-0.00183105,0.00455322,
116,-0.0134277,0.0046875,
118,-0.00732422,0.00476074,
120,-0.00793457,0.00484009,
122,-0.000610352,0.00484619,
124,-0.00671387,0.00491333,
126,-0.00671387,0.00498047,
128,-0.00610352,0.0050415,
130,-0.00915527,0.00513306,
132,-0.00854492,0.00521851,
134,0.00671387,0.00528564,
136,-0.00427246,0.00532837,
138,-0.00610352,0.0053894,
140,-0.00305176,0.00541992,
142,-0.00488281,0.00546875,
144,-0.00854492,0.0055542,
146,0.0012207,0.00556641,
148,0.0012207,0.00557861,
150,-0.00732422,0.00565186,
152,-0.00915527,0.00574341,
154,-0.00488281,0.00579224,
156,-0.012207,0.00591431,
158,-0.0164795,0.0060791,
160,-0.00854492,0.00616455,
162,-0.00244141,0.00618896,
164,-0.0250244,0.00643921,
166,0.00549316,0.00649414,
168,0.00305176,0.00652466,
170,-0.00671387,0.0065918,
172,-0.00427246,0.00663452,
174,0.0012207,0.00664673,
176,0.00671387,0.00671387,
178,0.00183105,0.00673218,
180,-0.00793457,0.00681152,
182,-0.0152588,0.00696411,
184,-0.00183105,0.00698242,
186,-0.00610352,0.00704346,
188,-0.020752,0.00725098,
190,-0.0146484,0.00739746,
192,-0.00793457,0.00747681,
194,-0.00244141,0.00750122,
196,-0.00976563,0.00759888,
198,-0.012207,0.00772095,
200,-0.00183105,0.00762939,
202,0.0012207,0.00759277,
204,-0.00610352,0.00756226,
206,-0.0012207,0.00749512,
208,-0.00793457,0.00747681,
210,-0.00549316,0.00736694,
212,-0.00305176,0.00738525,
214,-0.00732422,0.00725098,
216,-0.0115967,0.00736694,
218,-0.00549316,0.00726318,
220,-0.00427246,0.00715942,
222,-0.00915527,0.00723877,
224,-0.00732422,0.00721436,
226,-0.00671387,0.00720215,
228,0.00244141,0.00719604,
230,-0.00671387,0.0071106,
232,-0.00671387,0.0071228,
234,-0.00427246,0.0071228,
236,0.0012207,0.0069397,
238,-0.00976563,0.00686035,
240,0.00305176,0.00682983,
242,-0.0134277,0.00688477,
244,-0.00854492,0.0067688,
246,-0.00732422,0.00679932,
248,-0.0012207,0.00673828,
250,-0.00915527,0.00681152,
252,-0.0189209,0.00697021,
254,0.00549316,0.00692749,
256,0.00366211,0.00692749,
258,-0.0177002,0.00702515,
260,-0.00793457,0.00709839,
262,-0.00488281,0.00708618,
264,0.00793457,0.00704956,
266,0,0.0069458,
268,-0.0012207,0.00693359,
270,-0.0164795,0.00689087,
272,-0.00610352,0.00691528,
274,0.0170898,0.00706787,
276,-0.0115967,0.00709839,
278,-0.00183105,0.00702515,
280,-0.0128174,0.00702515,
282,-0.0012207,0.00701904,
284,-0.00488281,0.00697021,
286,-0.00915527,0.00693359,
288,-0.0128174,0.00704956,
290,-0.00305176,0.00692139,
292,-0.000610352,0.00689087,
294,-0.0134277,0.00692749,
296,-0.00854492,0.00696411,
298,-0.00366211,0.00690918,
300,-0.00671387,0.00695801,
302,-0.00854492,0.00700073,
304,-0.00915527,0.00704346,
306,-0.000610352,0.00696411,
308,-0.00671387,0.00696411,
310,-0.00915527,0.00704346,
312,0.00427246,0.00707397,
314,-0.00854492,0.00714111,
316,-0.00732422,0.00708008,
318,-0.00244141,0.00703125,
320,-0.00671387,0.00701904,
322,-0.0012207,0.00702515,
324,-0.00915527,0.00704956,
326,-0.0109863,0.00709229,
328,0.0012207,0.00704346,
330,-0.010376,0.00705566,
332,-0.00427246,0.00701294,
334,0.000610352,0.0069519,
336,-0.00610352,0.00697021,
338,-0.00793457,0.00698853,
340,0.00549316,0.00701294,
342,-0.00732422,0.00703735,
344,-0.010376,0.00705566,
346,0.00183105,0.00706177,
348,0.00549316,0.00710449,
350,-0.0128174,0.00715942,
352,-0.00305176,0.00709839,
354,-0.00427246,0.00709229,
356,0.0115967,0.00708618,
358,-0.0158691,0.00708008,
360,-0.00732422,0.00706787,
362,0.0012207,0.00705566,
364,0,0.00680542,
366,-0.0213623,0.00696411,
368,0.00915527,0.00702515,
370,-0.00915527,0.00704956,
372,-0.00366211,0.00704346,
374,0.00976563,0.00712891,
376,-0.0115967,0.00717773,
378,-0.0152588,0.00731201,
380,0.00610352,0.0072937,
382,0,0.00714111,
384,-0.012207,0.00724487,
386,0,0.00718384,
388,0.00427246,0.00701904,
390,-0.0146484,0.00701904,
392,-0.00183105,0.00695801,
394,-0.00183105,0.0069519,
396,-0.00671387,0.00692139,
398,-0.00366211,0.00683594,
400,-0.0195313,0.00701294,
402,-0.00183105,0.00701904,
404,-0.00305176,0.00698853,
406,-0.00427246,0.00701904,
408,-0.010376,0.00704346,
410,0,0.00698853,
412,0.00671387,0.00702515,
414,-0.00976563,0.00704956,
416,0.00549316,0.00698853,
418,-0.00549316,0.00698853,
420,-0.00976563,0.00704346,
422,-0.00427246,0.00699463,
424,-0.00427246,0.00696411,
426,-0.00488281,0.0069458,
428,-0.010376,0.00702515,
430,-0.0140381,0.00709839,
432,-0.00488281,0.00708008,
434,0.00427246,0.00708008,
436,-0.0134277,0.00720215,
438,-0.00305176,0.00713501,
440,-0.000610352,0.0071106,
442,-0.00854492,0.00706177,
444,-0.0128174,0.00710449,
446,0.00671387,0.00709839,
448,-0.012207,0.00720825,
450,-0.00915527,0.00720825,
452,-0.00488281,0.00706787,
454,-0.00671387,0.00708008,
456,-0.00793457,0.0071228,
458,-0.00610352,0.00700684,
460,-0.00732422,0.00700073,
462,0.000610352,0.00695801,
464,-0.00793457,0.00695801,
466,-0.00915527,0.00704956,
468,-0.010376,0.00714111,
470,-0.00671387,0.00704346,
472,-0.00305176,0.00701294,
474,-0.00854492,0.00692749,
476,0.00244141,0.00683594,
478,-0.0244141,0.00706177,
480,0.000610352,0.0069397,
482,0.0012207,0.0069397,
484,-0.0158691,0.00704956,
486,-0.000610352,0.00696411,
488,-0.00183105,0.00685425,
490,-0.00488281,0.00687256,
492,-0.0231934,0.00709839,
494,-0.00671387,0.00703125,
496,-0.00671387,0.00701294,
498,-0.00610352,0.00703735,
500,-0.00244141,0.00699463,
502,-0.00610352,0.00697021,
504,-0.00793457,0.00695801,
506,-0.000610352,0.00695801,
508,0.00427246,0.00693359,
510,-0.00305176,0.00687256,
512,-0.00427246,0.00687256,
514,-0.010376,0.00689087,
516,0.00305176,0.00684814,
518,-0.000610352,0.00682983,
520,-0.0158691,0.00692139,
522,-0.00244141,0.00693359,
524,-0.00854492,0.00692749,
526,0,0.00681763,
528,-0.010376,0.00690918,
530,-0.00915527,0.00689697,
532,-0.00671387,0.00692139,
534,-0.0128174,0.00704346,
536,-0.0158691,0.00714111,
538,0.0164795,0.00722656,
540,-0.0183105,0.00735474,
542,-0.00793457,0.00736084,
544,-0.010376,0.00736084,
546,-0.000610352,0.00734863,
548,-0.00671387,0.00736084,
550,0.00488281,0.00728149,
552,-0.00854492,0.00733643,
554,-0.0164795,0.0074585,
556,-0.00427246,0.00738525,
558,-0.00549316,0.00728149,
560,-0.00427246,0.00725098,
562,0.0012207,0.00725098,
564,0.0012207,0.00726318,
566,-0.0183105,0.00723267,
568,0.00488281,0.00718994,
570,-0.0170898,0.00726929,
572,0.00671387,0.0072998,
574,-0.010376,0.00730591,
576,0.000610352,0.00719604,
578,-0.0189209,0.00723267,
580,0.0140381,0.00731201,
582,0.0128174,0.00744019,
584,-0.0170898,0.00748901,
586,-0.00915527,0.00758057,
588,-0.00793457,0.00761719,
590,0.00915527,0.00756226,
592,-0.00732422,0.00761719,
594,-0.0158691,0.00775757,
596,-0.00793457,0.00776978,
598,-0.010376,0.00783691,
600,-0.00244141,0.00766602,
602,-0.00610352,0.00770874,
604,-0.00427246,0.00772095,
606,-0.0152588,0.00783081,
608,-0.0012207,0.00773926,
610,-0.0146484,0.00788574,
612,-0.00671387,0.00788574,
614,-0.0201416,0.0079895,
616,-0.00976563,0.00803223,
618,0.00366211,0.00801392,
620,-0.0177002,0.00809326,
622,-0.00976563,0.00814819,
624,-0.0134277,0.00823975,
626,0.00366211,0.00822754,
628,-0.00732422,0.00819702,
630,-0.012207,0.00817871,
632,-0.00793457,0.00820923,
634,0.00854492,0.00825195,
636,0.0012207,0.00812988,
638,-0.00366211,0.00813599,
640,-0.00976563,0.00822754,
642,-0.00488281,0.00819092,
644,0.0134277,0.00819702,
646,0.010376,0.00823364,
648,0,0.00811157,
650,-0.00488281,0.00806885,
652,-0.0115967,0.00813599,
654,-0.000610352,0.00807495,
656,-0.00671387,0.00806274,
658,-0.000610352,0.00800781,
660,-0.0128174,0.00806274,
662,-0.0134277,0.00819092,
664,-0.0286865,0.00839844,
666,-0.000610352,0.00831299,
668,-0.00671387,0.00827637,
670,-0.00793457,0.00828857,
672,-0.00549316,0.00831299,
674,-0.00671387,0.00829468,
676,-0.00610352,0.0083313,
678,0.010376,0.00819092,
680,-0.012207,0.00830688,
682,-0.0012207,0.00830688,
684,-0.000610352,0.0081543,
686,0.00183105,0.0081665,
688,-0.0109863,0.00825806,
690,-0.012207,0.0083313,
692,-0.00610352,0.0081604,
694,-0.010376,0.00819702,
696,-0.010376,0.00823364,
698,-0.00183105,0.00819092,
700,-0.0152588,0.00831909,
702,-0.00793457,0.0083374,
704,-0.00854492,0.00834351,
706,-0.00854492,0.00842285,
708,-0.00366211,0.00841675,
710,-0.00976563,0.00848389,
712,-0.0195313,0.00863647,
714,-0.00915527,0.00862427,
716,-0.0231934,0.00882568,
718,-0.00671387,0.00888672,
720,-0.0244141,0.00897217,
722,0.0152588,0.00910034,
724,-0.0128174,0.00914307,
726,-0.0109863,0.00925293,
728,-0.00305176,0.00917969,
730,0.00488281,0.00913696,
732,0.00610352,0.00913086,
734,-0.00366211,0.00903931,
736,-0.00183105,0.00889893,
738,-0.00732422,0.00880737,
740,-0.00854492,0.00870972,
742,-0.0115967,0.00874634,
744,-0.012207,0.00876465,
746,0.00732422,0.00883179,
748,-0.00732422,0.00883789,
750,-0.0115967,0.00890503,
752,0.000610352,0.00882568,
754,-0.00488281,0.00870972,
756,-0.00854492,0.00875244,
758,-0.00488281,0.00874634,
760,-0.00366211,0.00874023,
762,-0.00610352,0.00878906,
764,-0.00671387,0.00884399,
766,-0.0146484,0.00880737,
768,-0.00305176,0.00878906,
770,-0.00732422,0.00869141,
772,0,0.00862427,
774,-0.00488281,0.00856934,
776,-0.0115967,0.0086792,
778,-0.00671387,0.00855713,
780,-0.0012207,0.00842896,
782,-0.00366211,0.0083374,
784,-0.00183105,0.00818481,
786,0.000610352,0.00809937,
788,-0.0109863,0.00812988,
790,0.0012207,0.00805054,
792,-0.00732422,0.00805054,
794,-0.012207,0.00801392,
796,0.00488281,0.0079834,
798,0.000610352,0.00788574,
800,-0.00549316,0.00791626,
802,-0.0134277,0.0079895,
804,-0.00671387,0.00801392,
806,0.0115967,0.00797729,
808,-0.00305176,0.00799561,
810,-0.00671387,0.00791626,
812,-0.00305176,0.00787964,
814,-0.00366211,0.00771484,
816,-0.00610352,0.00767822,
818,-0.00488281,0.00769043,
820,-0.0012207,0.00752563,
822,-0.00915527,0.00751953,
824,-0.0115967,0.00750122,
826,0,0.0074646,
828,-0.0177002,0.00756836,
830,-0.0012207,0.0074585,
832,-0.00488281,0.00742798,
834,-0.00244141,0.00736694,
836,0.000610352,0.00736084,
838,0,0.00732422,
840,-0.00549316,0.00728149,
842,-0.00244141,0.00725708,
844,-0.00854492,0.00720825,
846,0.00854492,0.00718994,
848,-0.00732422,0.00726318,
850,-0.00610352,0.00727539,
852,-0.0146484,0.00730591,
854,0.00366211,0.00733643,
856,-0.0134277,0.00740356,
858,0.00549316,0.00745239,
860,-0.000610352,0.00733032,
862,0.000610352,0.00720215,
864,-0.00671387,0.00698242,
866,-0.00183105,0.00699463,
868,0.0012207,0.0069397,
870,-0.00427246,0.00690308,
872,-0.00549316,0.00690308,
874,-0.00427246,0.00687866,
876,-0.0219727,0.00703735,
878,-0.00244141,0.00695801,
880,0.00183105,0.00685425,
882,-0.0134277,0.00697632,
884,-0.00549316,0.00702515,
886,-0.00183105,0.00702515,
888,-0.010376,0.00701904,
890,0.00976563,0.00699463,
892,-0.00366211,0.00697021,
894,-0.012207,0.00698853,
896,0.00671387,0.0069519,
898,0.00793457,0.00701294,
900,-0.00732422,0.00693359,
902,-0.0140381,0.00699463,
904,-0.00366211,0.0069458,
906,0.00549316,0.00691528,
908,-0.00305176,0.00690918,
910,-0.00732422,0.00688477,
912,-0.00732422,0.0067627,
914,-0.00976563,0.0067688,
916,-0.00976563,0.00663452,
918,-0.00427246,0.00661011,
920,-0.00671387,0.00643311,
922,-0.00793457,0.00635986,
924,-0.00488281,0.00628052,
926,0,0.00617065,
928,-0.000610352,0.00614624,
930,0.00610352,0.00615845,
932,0.0152588,0.00625,
934,-0.00488281,0.00626221,
936,-0.00732422,0.00631714,
938,0.00671387,0.00631104,
940,-0.00244141,0.00625,
942,-0.00854492,0.00621948,
944,-0.0219727,0.00631714,
946,-0.012207,0.00636597,
948,-0.012207,0.00641479,
950,-0.012207,0.0064209,
952,-0.00305176,0.00644531,
954,-0.00732422,0.00646973,
956,0.012207,0.00650635,
958,0.0158691,0.00661621,
960,-0.00976563,0.00667725,
962,0.010376,0.00671997,
964,-0.012207,0.0067749,
966,-0.00976563,0.00672607,
968,0,0.00669556,
970,-0.0250244,0.00687256,
972,-0.0170898,0.00704346,
974,-0.0195313,0.00718994,
976,-0.0323486,0.00739746,
978,0.0134277,0.0074646,
980,-0.00915527,0.00754395,
982,-0.0128174,0.0076355,
984,-0.00366211,0.00765381,
986,-0.00305176,0.00767822,
988,-0.00854492,0.00765381,
990,0.0012207,0.00765381,
992,-0.000610352,0.00758667,
994,-0.0195313,0.00765991,
996,0.0164795,0.00777588,
998,-0.0280762,0.00805054,
1000,-0.0109863,0.00810547,
1002,-0.0012207,0.0079834,
1004,-0.00976563,0.00801392,
1006,0.00305176,0.00792847,
1008,-0.0134277,0.00803223,
1010,-0.00793457,0.00804443,
1012,0.000610352,0.00802002,
1014,-0.0158691,0.00814209,
1016,0.00366211,0.00811768,
1018,-0.00671387,0.00813599,
1020,-0.00915527,0.00821533,
1022,-0.00854492,0.00820923,
1024,-0.0115967,0.00820923,
1026,-0.0140381,0.00834961,
1028,-0.00854492,0.00825806,
1030,-0.00793457,0.0083252,
1032,-0.00793457,0.00835571,
1034,-0.00732422,0.00840454,
1036,-0.0140381,0.00853882,
1038,-0.00244141,0.00856323,
1040,-0.00976563,0.00860596,
1042,-0.0146484,0.00872803,
1044,-0.000610352,0.00864868,
1046,0.00183105,0.00858154,
1048,-0.0146484,0.00865479,
1050,-0.0115967,0.00870972,
1052,0.00244141,0.00858765,
1054,-0.00488281,0.00859985,
1056,-0.00549316,0.00852051,
1058,-0.00793457,0.00854492,
1060,-0.00610352,0.00859985,
1062,-0.00671387,0.00866089,
1064,-0.012207,0.00871582,
1066,0.00671387,0.00876465,
1068,-0.012207,0.00887451,
1070,-0.0115967,0.00894775,
1072,-0.00183105,0.00891113,
1074,0.00549316,0.00892334,
1076,-0.0134277,0.00883789,
1078,-0.00244141,0.00883789,
1080,0.000610352,0.00882568,
1082,0.00488281,0.00874023,
1084,-0.00305176,0.00871582,
1086,-0.00793457,0.00877686,
1088,-0.00427246,0.00871582,
1090,-0.000610352,0.00862427,
1092,-0.0177002,0.00876465,
1094,0.0012207,0.00865479,
1096,-0.0213623,0.00880127,
1098,0.0170898,0.00889282,
1100,-0.0250244,0.00906982,
1102,-0.0140381,0.00906982,
1104,-0.00549316,0.00908813,
1106,0.00610352,0.00909424,
1108,-0.00549316,0.00911865,
1110,-0.0195313,0.00924072,
1112,0,0.00916748,
1114,-0.00244141,0.00909424,
1116,-0.00610352,0.00905762,
1118,-0.00183105,0.0090332,
1120,-0.0128174,0.00909424,
1122,-0.00488281,0.00906372,
1124,-0.000610352,0.009021,
1126,-0.0012207,0.0090332,
1128,-0.00488281,0.00907593,
1130,-0.0128174,0.00914307,
1132,-0.00366211,0.0090271,
1134,-0.0012207,0.00899048,
1136,-0.00671387,0.00898438,
1138,-0.0140381,0.00905762,
1140,-0.0012207,0.00904541,
1142,-0.00549316,0.00901489,
1144,-0.012207,0.00891724,
1146,0.00244141,0.00881958,
1148,-0.00488281,0.00874634,
1150,-0.00610352,0.0086853,
1152,-0.00244141,0.0086792,
1154,-0.00305176,0.00863647,
1156,-0.00488281,0.00856323,
1158,0.00244141,0.00842896,
1160,-0.0115967,0.00844727,
1162,0.000610352,0.00834961,
1164,-0.00488281,0.00827637,
1166,-0.0109863,0.00828857,
1168,-0.00793457,0.00836792,
1170,0.0152588,0.00827026,
1172,-0.00305176,0.00812988,
1174,-0.00915527,0.00802612,
1176,-0.00610352,0.00776367,
1178,0.000610352,0.0076355,
1180,0.00366211,0.00758057,
1182,-0.00488281,0.00750122,
1184,-0.010376,0.00756836,
1186,-0.0164795,0.00770264,
1188,-0.00427246,0.00765991,
1190,0.000610352,0.00765381,
1192,-0.0158691,0.0078064,
1194,-0.0189209,0.00780029,
1196,0.00244141,0.00765991,
1198,-0.0109863,0.00748901,
1200,-0.00549316,0.00743408,
1202,-0.00427246,0.0074646,
1204,-0.0140381,0.00750732,
1206,-0.000610352,0.00748291,
1208,0.000610352,0.00735474,
1210,-0.00244141,0.0072998,
1212,-0.00183105,0.00731201,
1214,-0.00427246,0.00719604,
1216,0,0.00715942,
1218,-0.010376,0.00719604,
1220,-0.00366211,0.00714111,
1222,0,0.00705566,
1224,-0.00671387,0.00700684,
1226,-0.00854492,0.0069519,
1228,-0.0012207,0.00687866,
1230,-0.00366211,0.00683594,
1232,0.00610352,0.00681763,
1234,0.00366211,0.00678101,
1236,-0.00610352,0.00670166,
1238,-0.0012207,0.00668945,
1240,-0.00366211,0.00662842,
1242,0.00183105,0.00650024,
1244,-0.00915527,0.00658569,
1246,-0.00305176,0.0065979,
1248,-0.00854492,0.00653687,
1250,-0.00549316,0.00647583,
1252,-0.00915527,0.00654297,
1254,-0.0109863,0.006604,
1256,0.00488281,0.0065979,
1258,-0.00854492,0.006604,
1260,-0.0109863,0.00665283,
1262,-0.00366211,0.00662231,
1264,0.00305176,0.00653076,
1266,-0.0158691,0.00662231,
1268,-0.00488281,0.00654907,
1270,-0.00610352,0.00649414,
1272,-0.0128174,0.006604,
1274,0.00183105,0.00656738,
1276,-0.0140381,0.00657349,
1278,-0.0195313,0.00674438,
1280,0.00366211,0.0067749,
1282,-0.00671387,0.00679321,
1284,-0.012207,0.00688477,
1286,-0.0128174,0.00693359,
1288,0.00183105,0.00690918,
1290,-0.00610352,0.00696411,
1292,-0.0146484,0.00693359,
1294,-0.00793457,0.00700073,
1296,-0.00671387,0.00685425,
1298,-0.0140381,0.00682373,
1300,-0.0183105,0.00675659,
1302,0.00793457,0.00669556,
1304,-0.0152588,0.00679321,
1306,-0.0146484,0.00687866,
1308,0.00244141,0.00684814,
1310,-0.0128174,0.00678101,
1312,0.00671387,0.00684814,
1314,-0.012207,0.0069458,
1316,0.00488281,0.00693359,
1318,0.00488281,0.00696411,
1320,-0.022583,0.00706177,
1322,-0.00976563,0.0071106,
1324,-0.00915527,0.00719604,
1326,-0.012207,0.00730591,
1328,0.00244141,0.00728149,
1330,-0.00854492,0.00723877,
1332,-0.00732422,0.00727539,
1334,0.00244141,0.0072876,
1336,-0.00305176,0.00725098,
1338,-0.00366211,0.00714722,
1340,0.0012207,0.00714722,
1342,-0.00305176,0.0071228,
1344,0.00366211,0.00703735,
1346,-0.00549316,0.00706787,
1348,-0.00854492,0.00710449,
1350,-0.0115967,0.00715942,
1352,-0.00183105,0.00715332,
1354,-0.0231934,0.00735474,
1356,-0.00244141,0.00733032,
1358,-0.00305176,0.00733643,
1360,-0.00244141,0.00724487,
1362,-0.00549316,0.0072937,
1364,-0.00488281,0.0072937,
1366,0.000610352,0.00718994,
1368,-0.0012207,0.0071228,
1370,-0.00366211,0.00700684,
1372,0.00366211,0.00701294,
1374,-0.00427246,0.00696411,
1376,-0.00732422,0.00697632,
1378,-0.0140381,0.0071106,
1380,0.00854492,0.00715942,
1382,0.0012207,0.0071228,
1384,-0.00854492,0.00710449,
1386,-0.00366211,0.00697632,
1388,-0.000610352,0.0069397,
1390,-0.00244141,0.00695801,
1392,-0.00183105,0.00681763,
1394,-0.0140381,0.0067688,
1396,-0.00183105,0.0067627,
1398,-0.00793457,0.00673218,
1400,-0.0128174,0.00680542,
1402,-0.00427246,0.00680542,
1404,-0.00183105,0.00668335,
1406,-0.00915527,0.0067688,
1408,-0.00854492,0.00684814,
1410,-0.00915527,0.00691528,
1412,0,0.00689697,
1414,-0.0140381,0.00699463,
1416,-0.00732422,0.00706787,
1418,-0.010376,0.00706787,
1420,0.000610352,0.00703735,
1422,-0.00610352,0.00709839,
1424,-0.00671387,0.00709839,
1426,-0.00671387,0.00708008,
1428,-0.00183105,0.00708618,
1430,-0.0012207,0.00706177,
1432,-0.00610352,0.00706177,
1434,0.00488281,0.00707397,
1436,-0.0170898,0.00718384,
1438,0.00671387,0.00723877,
1440,-0.0109863,0.00731201,
1442,0.000610352,0.0072998,
1444,-0.00976563,0.00730591,
1446,0,0.00727539,
1448,-0.0152588,0.00734253,
1450,-0.00549316,0.00734253,
1452,-0.00976563,0.00734863,
1454,-0.0115967,0.00735474,
1456,-0.00366211,0.00734253,
1458,-0.0140381,0.00739746,
1460,0.00549316,0.00734253,
1462,-0.00671387,0.00737305,
1464,0.000610352,0.00734863,
1466,-0.0128174,0.00731812,
1468,0.00244141,0.0072937,
1470,-0.00488281,0.00728149,
1472,-0.00549316,0.00720825,
1474,0.0012207,0.00720215,
1476,-0.00732422,0.00713501,
1478,-0.0115967,0.00705566,
1480,-0.00915527,0.0071106,
1482,-0.00549316,0.00709839,
1484,-0.000610352,0.00698242,
1486,-0.020752,0.00706177,
1488,-0.00427246,0.00708618,
1490,0.00732422,0.00709839,
1492,-0.0238037,0.00718994,
1494,-0.00183105,0.00712891,
1496,0.00183105,0.00708008,
1498,-0.010376,0.00704346,
1500,-0.00427246,0.00690308,
1502,-0.00183105,0.00684204,
1504,-0.00854492,0.0067749,
1506,0.000610352,0.00663452,
1508,-0.00244141,0.00663452,
1510,-0.0012207,0.00651855,
1512,-0.00976563,0.00654907,
1514,-0.00427246,0.00646973,
1516,-0.00854492,0.00650635,
1518,-0.00427246,0.00650024,
1520,0.000610352,0.00628052,
1522,-0.00976563,0.00628052,
1524,-0.0134277,0.00632324,
1526,-0.00793457,0.00628052,
1528,-0.0012207,0.00626831,
1530,-0.00427246,0.00622559,
1532,-0.00732422,0.00622559,
1534,-0.00366211,0.00623779,
1536,-0.00732422,0.00628052,
1538,-0.0109863,0.00635376,
1540,-0.00183105,0.00635986,
1542,0.00610352,0.00639038,
1544,-0.0134277,0.00648804,
1546,-0.00488281,0.00648193,
1548,0.00488281,0.00644531,
1550,-0.0170898,0.00650024,
1552,0.00183105,0.00650024,
1554,-0.00915527,0.00635986,
1556,-0.00366211,0.00637207,
1558,-0.00183105,0.00635986,
1560,-0.0238037,0.00657349,
1562,-0.00366211,0.00655518,
1564,0.00244141,0.00653076,
1566,-0.00854492,0.00661011,
1568,-0.00854492,0.00668335,
1570,-0.0012207,0.00665894,
1572,0.00915527,0.00671387,
1574,-0.0158691,0.00682983,
1576,0.000610352,0.0067627,
1578,-0.0146484,0.0067688,
1580,0.00732422,0.00675659,
1582,-0.00793457,0.00682373,
1584,-0.00549316,0.00679321,
1586,-0.00244141,0.00678101,
1588,-0.00671387,0.00684204,
1590,-0.00183105,0.00683594,
1592,-0.00610352,0.00687866,
1594,0.000610352,0.00674438,
1596,-0.00793457,0.00680542,
1598,-0.00854492,0.00681152,
1600,0.0012207,0.00669556,
1602,-0.00366211,0.00668945,
1604,-0.0177002,0.00684814,
1606,0.0109863,0.00686646,
1608,-0.0134277,0.00691528,
1610,-0.0109863,0.00693359,
1612,-0.00427246,0.00697632,
1614,-0.00305176,0.00686646,
1616,-0.00488281,0.00684204,
1618,-0.00488281,0.00678711,
1620,-0.0115967,0.00689697,
1622,-0.00976563,0.00693359,
1624,0.00549316,0.00692139,
1626,-0.00854492,0.0069397,
1628,-0.0140381,0.00706177,
1630,-0.00183105,0.00706787,
1632,-0.00610352,0.00706787,
1634,-0.00305176,0.00704956,
1636,-0.00549316,0.00693359,
1638,-0.0128174,0.00699463,
1640,-0.00610352,0.0069458,
1642,0.00305176,0.00697021,
1644,-0.0213623,0.00708618,
1646,0.00427246,0.00712891,
1648,-0.00793457,0.00705566,
1650,-0.00793457,0.00708008,
1652,-0.000610352,0.00698853,
1654,0.000610352,0.00687866,
1656,-0.00976563,0.0069397,
1658,-0.00427246,0.00684204,
1660,-0.0152588,0.0069397,
1662,0.010376,0.00697632,
1664,-0.00732422,0.00704346,
1666,-0.0128174,0.00704346,
1668,-0.00793457,0.00709839,
1670,0.0012207,0.00706177,
1672,-0.00976563,0.00710449,
1674,-0.00854492,0.00717773,
1676,-0.00183105,0.0071228,
1678,0.00305176,0.00703735,
1680,-0.0183105,0.00712891,
1682,-0.00488281,0.0071228,
1684,0,0.0071167,
1686,-0.0115967,0.00702515,
1688,-0.00671387,0.00704956,
1690,-0.00183105,0.00699463,
1692,-0.00732422,0.00682983,
1694,-0.0115967,0.00692749,
1696,0,0.00690918,
1698,-0.000610352,0.00681152,
1700,-0.020752,0.00697632,
1702,-0.00549316,0.00701294,
1704,-0.00732422,0.00700073,
1706,0.0012207,0.00700684,
1708,-0.0128174,0.0071106,
1710,-0.00427246,0.00714111,
1712,-0.00732422,0.0071167,
1714,0.00244141,0.00709839,
1716,-0.00671387,0.00708008,
1718,-0.00549316,0.00709229,
1720,-0.00427246,0.00712891,
1722,0.00976563,0.00712891,
1724,-0.020752,0.00720215,
1726,-0.0140381,0.00726318,
1728,-0.00976563,0.00734863,
1730,0.00610352,0.00736694,
1732,-0.00610352,0.00735474,
1734,-0.0177002,0.00749512,
1736,-0.00549316,0.00747681,
1738,0.00854492,0.00745239,
1740,-0.00427246,0.00747681,
1742,-0.00732422,0.00748901,
1744,-0.00305176,0.00738525,
1746,-0.00427246,0.00737915,
1748,-0.0115967,0.00744629,
1750,0.00671387,0.00734253,
1752,-0.0115967,0.00744019,
1754,-0.00549316,0.00740356,
1756,-0.000610352,0.00737305,
1758,0.000610352,0.00736084,
1760,-0.00183105,0.00714111,
1762,-0.00671387,0.00717163,
1764,-0.00976563,0.00724487,
1766,0.00366211,0.00719604,
1768,0.00244141,0.00713501,
1770,-0.0128174,0.00725098,
1772,-0.00793457,0.00723877,
1774,-0.00793457,0.00715942,
1776,0.00488281,0.00720215,
1778,-0.00549316,0.0071106,
1780,-0.012207,0.00715942,
1782,-0.00732422,0.00715332,
1784,0.00915527,0.00718994,
1786,-0.0152588,0.00731812,
1788,-0.00366211,0.0072876,
1790,-0.0012207,0.00728149,
1792,0.0012207,0.00723267,
1794,-0.00488281,0.00727539,
1796,-0.00366211,0.00723267,
1798,-0.00488281,0.00719604,
1800,-0.00244141,0.00720825,
1802,-0.00549316,0.00722656,
1804,0.00244141,0.00707397,
1806,-0.00671387,0.00703125,
1808,-0.00976563,0.00699463,
1810,0.00549316,0.0069397,
1812,-0.00549316,0.0069519,
1814,-0.00488281,0.00697021,
1816,-0.000610352,0.00692749,
1818,-0.0170898,0.00704956,
1820,-0.00488281,0.00698242,
1822,-0.0164795,0.00704956,
1824,-0.00854492,0.00708008,
1826,-0.00549316,0.00704956,
1828,-0.00976563,0.00700684,
1830,-0.00793457,0.00706787,
1832,-0.00244141,0.00703125,
1834,-0.00732422,0.00707397,
1836,0.00305176,0.00704956,
1838,0.00244141,0.0069458,
1840,-0.0140381,0.00702515,
1842,-0.000610352,0.00700073,
1844,-0.00854492,0.00687256,
1846,0.00366211,0.00686646,
1848,-0.0115967,0.00690308,
1850,-0.00366211,0.00686035,
1852,-0.012207,0.00697632,
1854,-0.00244141,0.00699463,
1856,0.00732422,0.00697021,
1858,0.0012207,0.0069397,
1860,-0.0177002,0.00696411,
1862,-0.00610352,0.00692139,
1864,0.00732422,0.00692139,
1866,-0.0109863,0.00690308,
1868,-0.00366211,0.00686035,
1870,-0.00305176,0.00687866,
1872,-0.00976563,0.00687866,
1874,0.0115967,0.00690918,
1876,-0.0115967,0.00700684,
1878,-0.00183105,0.00699463,
1880,0.00488281,0.00686035,
1882,-0.00915527,0.00690308,
1884,-0.00793457,0.00698242,
1886,-0.00427246,0.00690918,
1888,-0.00305176,0.00687256,
1890,-0.00183105,0.00687256,
1892,-0.0109863,0.00690918,
1894,-0.00793457,0.00687256,
1896,0.00427246,0.00691528,
1898,-0.0109863,0.00701904,
1900,-0.00793457,0.00689087,
1902,0.00366211,0.00687256,
1904,-0.0115967,0.00691528,
1906,-0.00427246,0.0069458,
1908,-0.00671387,0.00688477,
1910,-0.00610352,0.00690308,
1912,-0.0012207,0.00684204,
1914,-0.00488281,0.00686646,
1916,-0.00549316,0.00685425,
1918,-0.0128174,0.00692749,
1920,-0.0134277,0.00701904,
1922,0.00610352,0.00698242,
1924,-0.00244141,0.00679932,
1926,-0.010376,0.0067627,
1928,-0.00915527,0.00675659,
1930,-0.00915527,0.00678711,
1932,0.00183105,0.00674438,
1934,-0.0012207,0.00657959,
1936,-0.00488281,0.00657349,
1938,-0.00976563,0.00658569,
1940,-0.00427246,0.00658569,
1942,-0.0012207,0.00652466,
1944,-0.00305176,0.00652466,
1946,-0.0170898,0.00665283,
1948,-0.00244141,0.00656128,
1950,0.0146484,0.00664063,
1952,-0.00854492,0.00661011,
1954,-0.0213623,0.0067688,
1956,-0.00610352,0.00682373,
1958,-0.00183105,0.00683594,
1960,-0.00366211,0.00685425,
1962,-0.0146484,0.00693359,
1964,-0.00976563,0.00693359,
1966,-0.0152588,0.00704956,
1968,0.0115967,0.00714111,
1970,-0.0115967,0.00712891,
1972,-0.00427246,0.00709229,
1974,0.00183105,0.00703125,
1976,-0.00854492,0.00706787,
1978,-0.00854492,0.00709839,
1980,0.00366211,0.00701294,
1982,-0.00549316,0.00699463,
1984,-0.00610352,0.00696411,
1986,-0.0213623,0.00702515,
1988,-0.00732422,0.00706177,
1990,0.00366211,0.00708618,
1992,-0.00427246,0.0071167,
1994,-0.0012207,0.00708008,
1996,-0.0115967,0.00715942,
1998,-0.00549316,0.00716553,
2000,0.00305176,0.00717163,
2002,-0.00610352,0.00717773,
2004,-0.0109863,0.00726318,
2006,-0.00915527,0.0072876,
2008,0.00549316,0.00724487,
2010,-0.0109863,0.0072998,
2012,-0.00854492,0.00733032,
2014,-0.00854492,0.00736694,
2016,-0.00915527,0.00745239,
2018,-0.0109863,0.00739136,
2020,0.0134277,0.00747681,
2022,-0.0158691,0.0074707,
2024,-0.0140381,0.00752563,
2026,-0.00671387,0.00753784,
2028,0.00183105,0.0074585,
2030,-0.00244141,0.00740356,
2032,-0.010376,0.00748291,
2034,-0.0012207,0.00742187,
2036,-0.00366211,0.00742798,
2038,-0.00488281,0.00745239,
2040,-0.00427246,0.00735474,
2042,-0.00732422,0.00742187,
2044,0,0.00733643,
2046,-0.0109863,0.00740967,
2048,0.000610352,0.0072998,
2050,-0.00671387,0.00733032,
2052,-0.000610352,0.00721436,
2054,-0.00793457,0.00726929,
2056,0.00732422,0.00726929,
2058,-0.00549316,0.00731201,
2060,-0.0128174,0.00726318,
2062,-0.00488281,0.00725098,
2064,-0.00915527,0.00726929,
2066,-0.000610352,0.00716553,
2068,-0.0189209,0.00731812,
2070,-0.00244141,0.00731201,
2072,-0.00915527,0.00730591,
2074,-0.00915527,0.00728149,
2076,-0.00244141,0.00718994,
2078,-0.00427246,0.00721436,
2080,-0.00183105,0.00718384,
2082,0,0.00709229,
2084,-0.00427246,0.00705566,
2086,-0.0128174,0.00714111,
2088,-0.00610352,0.00717163,
2090,0.0183105,0.00733643,
2092,-0.0201416,0.00742798,
2094,-0.00366211,0.00738525,
2096,-0.00488281,0.00739136,
2098,-0.00366211,0.00731812,
2100,-0.0323486,0.00756226,
2102,-0.00976563,0.00762329,
2104,0.00427246,0.00755005,
2106,-0.0109863,0.00761719,
2108,-0.0170898,0.00772095,
2110,-0.010376,0.00776367,
2112,0.00366211,0.00778809,
2114,0.00183105,0.00775757,
2116,-0.00305176,0.00773315,
2118,-0.00671387,0.00767212,
2120,0.00549316,0.00759277,
2122,-0.0140381,0.00767212,
2124,0.0146484,0.00779419,
2126,-0.0170898,0.00786133,
2128,-0.00610352,0.00783081,
2130,0.00183105,0.00775757,
2132,-0.0012207,0.00775146,
2134,-0.00549316,0.00779419,
2136,-0.00488281,0.00779419,
2138,-0.000610352,0.00770264,
2140,-0.00671387,0.00772705,
2142,0.00244141,0.00773926,
2144,-0.00244141,0.00773315,
2146,0.000610352,0.00756836,
2148,-0.0115967,0.00765991,
2150,-0.00732422,0.00758667,
2152,-0.00549316,0.00755615,
2154,-0.00305176,0.00737305,
2156,-0.00671387,0.00737915,
2158,-0.00610352,0.00742187,
2160,-0.00915527,0.00747681,
2162,-0.00305176,0.00736084,
2164,-0.00244141,0.0072876,
2166,-0.00732422,0.00720825,
2168,0,0.00709229,
2170,-0.00915527,0.00706787,
2172,-0.012207,0.00714722,
2174,0.00488281,0.00717773,
2176,-0.0158691,0.00725098,
2178,0.0012207,0.00717773,
2180,-0.000610352,0.00714722,
2182,-0.000610352,0.00709839,
2184,-0.012207,0.00715942,
2186,0.00366211,0.00698242,
2188,0.00610352,0.00697021,
2190,-0.00488281,0.00698242,
2192,0.00549316,0.00699463,
2194,-0.0134277,0.0071167,
2196,-0.00488281,0.00704956,
2198,-0.00793457,0.00707397,
2200,-0.00305176,0.00707397,
2202,-0.010376,0.0071167,
2204,-0.0012207,0.00701904,
2206,-0.0164795,0.00709229,
2208,-0.012207,0.00715942,
2210,0.00732422,0.0071228,
2212,-0.00244141,0.00706177,
2214,-0.022583,0.00720215,
2216,0.00671387,0.00717773,
2218,0,0.00706787,
2220,-0.0109863,0.00704346,
2222,-0.012207,0.00700684,
2224,0.0134277,0.00700073,
2226,-0.0152588,0.00708618,
2228,-0.00671387,0.00713501,
2230,0,0.0071106,
2232,-0.0152588,0.00715942,
2234,-0.00793457,0.00722656,
2236,-0.0158691,0.00734863,
2238,0.00427246,0.00734253,
2240,-0.0115967,0.00741577,
2242,-0.00488281,0.00739136,
2244,-0.00183105,0.00740967,
2246,-0.0134277,0.00743408,
2248,-0.0170898,0.00759888,
2250,0.0140381,0.00767212,
2252,-0.00793457,0.00774536,
2254,-0.00244141,0.00769043,
2256,-0.00732422,0.00769043,
2258,-0.00549316,0.00769043,
2260,-0.00427246,0.00760498,
2262,0.00183105,0.00757446,
2264,-0.00976563,0.00758057,
2266,-0.00610352,0.0076355,
2268,0.0012207,0.0074585,
2270,-0.00610352,0.00749512,
2272,-0.00915527,0.00749512,
2274,-0.012207,0.00752563,
2276,-0.00488281,0.00755005,
2278,-0.00244141,0.00753174,
2280,-0.00671387,0.00758057,
2282,-0.00793457,0.00765991,
2284,-0.00793457,0.00769653,
2286,-0.0012207,0.00758057,
2288,-0.012207,0.0076416,
2290,-0.00244141,0.00748291,
2292,-0.0012207,0.0072937,
2294,-0.0012207,0.00726929,
2296,-0.00427246,0.00726318,
2298,-0.0146484,0.00737305,
2300,-0.00488281,0.00709839,
2302,0.00549316,0.00705566,
2304,-0.00854492,0.00709839,
2306,-0.00732422,0.00706177,
2308,-0.0177002,0.00706787,
2310,0.00610352,0.00702515,
2312,-0.0128174,0.0071167,
2314,-0.0012207,0.0071106,
2316,-0.00671387,0.00714722,
2318,-0.00793457,0.00715942,
2320,-0.00244141,0.00712891,
2322,-0.00915527,0.00708008,
2324,-0.000610352,0.0069397,
2326,-0.00366211,0.00680542,
2328,0.00183105,0.0067627,
2330,-0.0109863,0.00685425,
2332,-0.00244141,0.00686646,
2334,-0.00549316,0.00686646,
2336,0.0152588,0.00697021,
2338,-0.0183105,0.00714722,
2340,0.00610352,0.00714111,
2342,-0.00854492,0.00720215,
2344,-0.0012207,0.00718994,
2346,0.00305176,0.00721436,
2348,-0.00854492,0.00718384,
2350,-0.00549316,0.00716553,
2352,-0.00427246,0.00715332,
2354,-0.0109863,0.00723267,
2356,0.000610352,0.00717163,
2358,-0.0128174,0.00723877,
2360,-0.00854492,0.00723267,
2362,-0.00854492,0.0072876,
2364,-0.0146484,0.00740967,
2366,-0.012207,0.0074585,
2368,0,0.0074585,
2370,-0.0012207,0.00737915,
2372,-0.0109863,0.00736694,
2374,-0.00732422,0.00739136,
2376,-0.00732422,0.00730591,
2378,0.000610352,0.0072998,
2380,0.00366211,0.00733032,
2382,-0.0183105,0.00750732,
2384,-0.00366211,0.00742187,
2386,0.00305176,0.00741577,
2388,-0.012207,0.00747681,
2390,-0.00183105,0.00744629,
2392,-0.0158691,0.00755005,
2394,-0.0012207,0.00742798,
2396,0.0109863,0.00748901,
2398,-0.0146484,0.00755615,
2400,-0.00610352,0.00758667,
2402,-0.00549316,0.00753784,
2404,-0.0012207,0.00753784,
2406,-0.00488281,0.00742187,
2408,-0.00610352,0.00736084,
2410,-0.020752,0.00749512,
2412,-0.00793457,0.00755005,
2414,-0.00183105,0.00734253,
2416,-0.00732422,0.00734863,
2418,0.00305176,0.00737915,
2420,-0.0134277,0.00740356,
2422,-0.00244141,0.00730591,
2424,-0.0128174,0.0072998,
2426,-0.0012207,0.00715942,
2428,-0.00427246,0.00713501,
2430,-0.00427246,0.00717773,
2432,-0.0170898,0.00719604,
2434,-0.0109863,0.00722656,
2436,-0.0115967,0.00718384,
2438,-0.00610352,0.00720215,
2440,0.00549316,0.00714111,
2442,-0.00976563,0.00718994,
2444,-0.00793457,0.00725098,
2446,-0.00183105,0.00713501,
2448,-0.00244141,0.00698853,
2450,0.0134277,0.00698242,
2452,-0.0158691,0.00706177,
2454,-0.00915527,0.00712891,
2456,0,0.00705566,
2458,0.00488281,0.00704956,
2460,-0.0189209,0.00719604,
2462,-0.00366211,0.00721436,
2464,-0.00427246,0.00715942,
2466,-0.000610352,0.00710449,
2468,-0.00244141,0.0071167,
2470,-0.00854492,0.00714111,
2472,-0.00244141,0.00707397,
2474,-0.0012207,0.00696411,
2476,-0.00793457,0.00699463,
2478,-0.00915527,0.00706177,
2480,-0.00915527,0.00708618,
2482,-0.00793457,0.00708618,
2484,-0.0140381,0.00714722,
2486,-0.0012207,0.00714722,
2488,-0.012207,0.00714722,
2490,-0.00366211,0.00715942,
2492,-0.0170898,0.00731812,
2494,0.00915527,0.00739746,
2496,-0.00183105,0.00737305,
2498,-0.0146484,0.00737305,
2500,-0.00488281,0.00737305,
2502,-0.0012207,0.00733032,
2504,-0.00976563,0.00734253,
2506,-0.0134277,0.00740356,
2508,0.000610352,0.00723267,
2510,-0.00671387,0.00723877,
2512,-0.00976563,0.00720825,
2514,-0.0134277,0.00733032,
2516,-0.00549316,0.00731812,
2518,0,0.00723877,
2520,-0.010376,0.00731812,
2522,-0.00854492,0.00731201,
2524,0.0012207,0.00731812,
2526,-0.0115967,0.00739746,
2528,0.00244141,0.00740356,
2530,0.00305176,0.00732422,
2532,-0.00793457,0.00737915,
2534,0.00244141,0.00734863,
2536,-0.00854492,0.00728149,
2538,-0.00427246,0.00714111,
2540,0.00366211,0.0071167,
2542,-0.00732422,0.00710449,
2544,-0.00915527,0.00718384,
2546,0.00183105,0.00717163,
2548,-0.0164795,0.00725098,
2550,-0.00488281,0.00724487,
2552,-0.000610352,0.00720825,
2554,-0.0115967,0.00721436,
2556,-0.00549316,0.00726318,
2558,-0.00793457,0.00721436,
2560,0.00244141,0.00715332,
2562,-0.010376,0.00717163,
2564,-0.00610352,0.00708618,
2566,0.00244141,0.00698853,
2568,-0.00671387,0.00705566,
2570,-0.00366211,0.00708008,
2572,0.00427246,0.00701294,
2574,-0.00793457,0.00701904,
2576,-0.00671387,0.00701294,
2578,-0.00671387,0.00707397,
2580,-0.00366211,0.00707397,
2582,0,0.00689087,
2584,-0.00183105,0.00687256,
2586,-0.0140381,0.00698242,
2588,-0.00976563,0.00695801,
2590,0.00427246,0.00698242,
2592,-0.00427246,0.00686646,
2594,-0.00488281,0.00690308,
2596,-0.00610352,0.00685425,
2598,-0.00793457,0.00678711,
2600,-0.00732422,0.00679932,
2602,0.00244141,0.0067688,
2604,-0.0195313,0.0069519,
2606,0.0012207,0.00691528,
2608,-0.00366211,0.00689087,
2610,-0.0152588,0.00683594,
2612,-0.00488281,0.00680542,
2614,-0.00244141,0.00681152,
2616,-0.00732422,0.00681152,
2618,-0.012207,0.00690308,
2620,0.00305176,0.00679932,
2622,-0.010376,0.00687866,
2624,-0.00976563,0.00684814,
2626,0.000610352,0.00684204,
2628,0.00793457,0.00687866,
2630,-0.00732422,0.00690918,
2632,-0.00183105,0.00675659,
2634,0.0128174,0.0067749,
2636,-0.00793457,0.00673828,
2638,0.00366211,0.00671387,
2640,-0.00427246,0.00670166,
2642,-0.0012207,0.00661621,
2644,-0.0140381,0.00667725,
2646,0.0012207,0.00667114,
2648,-0.00732422,0.00671997,
2650,-0.00427246,0.00662842,
2652,-0.0109863,0.00657959,
2654,-0.00183105,0.00650635,
2656,-0.00671387,0.00657349,
2658,-0.00366211,0.00656128,
2660,0.0012207,0.00638428,
2662,-0.00549316,0.00640259,
2664,-0.00183105,0.00637817,
2666,0.0012207,0.00638428,
2668,-0.00915527,0.00645142,
2670,0.00366211,0.00640259,
2672,0.0012207,0.00639038,
2674,-0.0109863,0.00648804,
2676,-0.00610352,0.00646973,
2678,-0.00732422,0.00645142,
2680,-0.00244141,0.00638428,
2682,-0.00305176,0.00633545,
2684,-0.0115967,0.00631104,
2686,-0.00732422,0.00637207,
2688,-0.00427246,0.00629272,
2690,-0.0109863,0.00636597,
2692,-0.00366211,0.00623169,
2694,-0.00427246,0.00618286,
2696,0.00732422,0.00623779,
2698,-0.00915527,0.00618286,
2700,-0.0170898,0.00630493,
2702,0.00488281,0.00634155,
2704,-0.00976563,0.00634155,
2706,0.00732422,0.00628052,
2708,-0.00854492,0.00635986,
2710,-0.0146484,0.00643921,
2712,-0.0140381,0.00648193,
2714,0.0128174,0.00647583,
2716,-0.0140381,0.00656128,
2718,-0.0146484,0.00670776,
2720,0.00488281,0.00665283,
2722,-0.00549316,0.00662231,
2724,-0.00305176,0.00664063,
2726,-0.00854492,0.00661011,
2728,-0.00244141,0.00661011,
2730,-0.0146484,0.00672607,
2732,0.0195313,0.00684204,
2734,-0.00671387,0.00688477,
2736,-0.0140381,0.0069397,
2738,-0.00366211,0.00693359,
2740,-0.00915527,0.00698853,
2742,0.000610352,0.00692139,
2744,-0.000610352,0.00683594,
2746,-0.0152588,0.00697021,
2748,-0.00427246,0.00684814,
2750,-0.00610352,0.00686035,
2752,-0.000610352,0.00686035,
2754,-0.00671387,0.00681152,
2756,-0.00915527,0.00684814,
2758,-0.00488281,0.00681763,
2760,-0.00854492,0.00687866,
2762,-0.00488281,0.00682373,
2764,-0.00366211,0.00679932,
2766,-0.010376,0.00687866,
2768,-0.00732422,0.00688477,
2770,-0.0128174,0.00697632,
2772,-0.000610352,0.0069397,
2774,-0.00976563,0.00695801,
2776,-0.00732422,0.00696411,
2778,-0.00671387,0.00696411,
2780,0.000610352,0.00693359,
2782,-0.00549316,0.00698853,
2784,-0.00671387,0.00703735,
2786,-0.0012207,0.00690918,
2788,0.00183105,0.00682983,
2790,-0.00854492,0.00687256,
2792,0.0012207,0.00684204,
2794,0,0.00679321,
2796,-0.00671387,0.00679932,
2798,-0.0109863,0.00682983,
2800,-0.00854492,0.00684204,
2802,-0.00610352,0.00687866,
2804,-0.00183105,0.00670166,
2806,0.00305176,0.00671997,
2808,-0.0140381,0.00682373,
2810,-0.0152588,0.00682373,
2812,0.000610352,0.00678101,
2814,0.00366211,0.00679321,
2816,-0.00976563,0.00681763,
2818,-0.00793457,0.0067749,
2820,0.00305176,0.0067749,
2822,-0.012207,0.00679321,
2824,-0.00366211,0.00673218,
2826,0.0012207,0.00673828,
2828,-0.0189209,0.00684814,
2830,-0.00305176,0.00680542,
2832,-0.00427246,0.00682983,
2834,-0.00671387,0.0067688,
2836,-0.00427246,0.00673218,
2838,-0.0115967,0.00681152,
2840,-0.00549316,0.00682373,
2842,-0.00671387,0.00687866,
2844,-0.0012207,0.00675049,
2846,-0.00427246,0.00678101,
2848,-0.0177002,0.00688477,
2850,0.00427246,0.00688477,
2852,-0.00549316,0.00682983,
2854,-0.00427246,0.00685425,
2856,-0.00610352,0.00684814,
2858,-0.00183105,0.00682983,
2860,-0.00427246,0.00686035,
2862,-0.00793457,0.00688477,
2864,-0.00305176,0.00689697,
2866,-0.00854492,0.00697021,
2868,-0.00976563,0.00697632,
2870,-0.010376,0.00704346,
2872,-0.00854492,0.0071167,
2874,0,0.00700684,
2876,-0.00671387,0.00701294,
2878,-0.00671387,0.00700684,
2880,0.00488281,0.00703125,
2882,-0.00854492,0.00708618,
2884,-0.00305176,0.00700073,
2886,0.00183105,0.0069458,
2888,-0.010376,0.00700684,
2890,0.00366211,0.00693359,
2892,-0.010376,0.00700073,
2894,-0.00793457,0.00703735,
2896,-0.00915527,0.00705566,
2898,-0.00366211,0.00700073,
2900,-0.00427246,0.00687256,
2902,-0.0140381,0.00696411,
2904,0.00427246,0.00690918,
2906,-0.00610352,0.00689697,
2908,-0.00488281,0.00686035,
2910,0.00183105,0.00673218,
2912,-0.0201416,0.00679321,
2914,-0.000610352,0.00667114,
2916,0.00610352,0.0065918,
2918,-0.00427246,0.00648804,
2920,-0.00976563,0.00653687,
2922,-0.00366211,0.00651855,
2924,0.00488281,0.00653687,
2926,-0.00366211,0.00648804,
2928,0.00427246,0.00650635,
2930,-0.00793457,0.00643921,
2932,-0.00671387,0.00631104,
2934,-0.00244141,0.00626831,
2936,-0.0164795,0.00629272,
2938,0.00305176,0.00628662,
2940,-0.00427246,0.00623779,
2942,-0.0128174,0.00635986,
2944,-0.000610352,0.00635986,
2946,-0.00549316,0.00626221,
2948,-0.00244141,0.0062439,
2950,-0.00305176,0.00621338,
2952,-0.0189209,0.00639648,
2954,0.0152588,0.00648193,
2956,-0.0189209,0.00657959,
2958,0,0.00653076,
2960,-0.00793457,0.00652466,
2962,-0.00427246,0.00651855,
2964,-0.00610352,0.00654297,
2966,-0.00427246,0.00648193,
2968,-0.00183105,0.006427,
2970,-0.00732422,0.00637207,
2972,-0.00610352,0.006427,
2974,0.000610352,0.00633545,
2976,-0.0115967,0.00637817,
2978,-0.00732422,0.00638428,
2980,0.00305176,0.00640869,
2982,-0.00854492,0.00643921,
2984,-0.0115967,0.00648804,
2986,0.00366211,0.00651245,
2988,-0.0109863,0.006604,
2990,0.00183105,0.00653687,
2992,-0.0109863,0.00663452,
2994,-0.0012207,0.00664673,
2996,-0.00610352,0.00664063,
2998,-0.00915527,0.00662231,
3000,0.00244141,0.00656128,
3002,0.00305176,0.00653076,
3004,-0.00244141,0.00653687,
3006,-0.0140381,0.00664673,
3008,-0.00183105,0.00652466,
3010,-0.00366211,0.00640869,
3012,-0.00488281,0.00645142,
3014,0.00488281,0.00646362,
3016,-0.0140381,0.00650635,
3018,-0.0219727,0.00664673,
3020,-0.000610352,0.00662231,
3022,0.0012207,0.00651245,
3024,-0.0146484,0.00662231,
3026,-0.00854492,0.00669556,
3028,0.0012207,0.00651855,
3030,-0.00427246,0.00653076,
3032,-0.00915527,0.00657959,
3034,-0.00427246,0.00655518,
3036,0.0012207,0.00652466,
3038,-0.00671387,0.00647583,
3040,-0.00427246,0.00646362,
3042,-0.00976563,0.00649414,
3044,-0.00610352,0.00654297,
3046,-0.00244141,0.00652466,
3048,-0.0115967,0.00646362,
3050,-0.00366211,0.00645752,
3052,0.00183105,0.0064209,
3054,-0.0183105,0.00656128,
3056,0.00305176,0.00653076,
3058,-0.00793457,0.0065918,
3060,-0.00427246,0.0065918,
3062,-0.010376,0.00661621,
3064,-0.00305176,0.00661621,
3066,-0.00427246,0.00657349,
3068,-0.00793457,0.00655518,
3070,-0.0012207,0.00646362,
3072,-0.00183105,0.00639648,
3074,-0.00732422,0.00646973,
3076,-0.00427246,0.00644531,
3078,-0.000610352,0.00638428,
3080,-0.0012207,0.00634766,
3082,-0.00305176,0.00629272,
3084,-0.000610352,0.00626831,
3086,-0.00366211,0.00628662,
3088,-0.00854492,0.00626831,
3090,0.00427246,0.00627441,
3092,-0.010376,0.00627441,
3094,0.000610352,0.00620117,
3096,-0.00732422,0.00618286,
3098,-0.00854492,0.00623169,
3100,-0.0115967,0.00630493,
3102,0.00244141,0.00618896,
3104,-0.00671387,0.00621338,
3106,-0.00549316,0.00620728,
3108,-0.00915527,0.00625,
3110,0.000610352,0.00623779,
3112,-0.0012207,0.00604858,
3114,0.00183105,0.00606079,
3116,-0.00305176,0.00603027,
3118,-0.00366211,0.00602417,
3120,-0.010376,0.00603027,
3122,0.010376,0.00609741,
3124,-0.012207,0.00617065,
3126,-0.00854492,0.00621948,
3128,-0.00732422,0.00625,
3130,-0.0115967,0.00628662,
3132,-0.020752,0.006427,
3134,0.00915527,0.00649414,
3136,-0.0012207,0.00634155,
3138,-0.0115967,0.006427,
3140,-0.00488281,0.00643311,
3142,-0.010376,0.00640869,
3144,0.000610352,0.00640869,
3146,0.00427246,0.00639648,
3148,-0.0012207,0.00638428,
3150,-0.010376,0.00645752,
3152,-0.0109863,0.00637817,
3154,0.000610352,0.00623169,
3156,-0.00732422,0.00611572,
3158,-0.00793457,0.00619507,
3160,0.00488281,0.00616455,
3162,0.00244141,0.00614624,
3164,-0.0158691,0.0062439,
3166,-0.00183105,0.00621948,
3168,0.00427246,0.0062439,
3170,0.0012207,0.00618286,
3172,-0.00915527,0.00621338,
3174,-0.00793457,0.00628662,
3176,0.00610352,0.00623169,
3178,-0.00976563,0.0062561,
3180,-0.00244141,0.00625,
3182,-0.0183105,0.00634766,
3184,-0.00549316,0.00628662,
3186,0.0115967,0.00636597,
3188,-0.0189209,0.00644531,
3190,-0.00305176,0.00645752,
3192,0.000610352,0.00635376,
3194,-0.00915527,0.00643311,
3196,-0.0012207,0.00638428,
3198,0.00366211,0.00632935,
3200,-0.00488281,0.00635376,
3202,-0.0012207,0.00633545,
3204,-0.00549316,0.00636597,
3206,0.00427246,0.00626831,
3208,-0.00549316,0.00630493,
3210,-0.00915527,0.00635986,
3212,-0.00183105,0.00632935,
3214,-0.0012207,0.00629272,
3216,-0.00488281,0.00620117,
3218,-0.00610352,0.00604248,
3220,0.00305176,0.00606689,
3222,-0.012207,0.00617676,
3224,0.00732422,0.00610352,
3226,-0.0128174,0.00614624,
3228,-0.00671387,0.00620117,
3230,0.010376,0.00626221,
3232,-0.000610352,0.00617676,
3234,0.00183105,0.00615234,
3236,-0.0128174,0.00626831,
3238,-0.00427246,0.0062439,
3240,0.00854492,0.00628662,
3242,0.000610352,0.00619507,
3244,-0.00305176,0.00616455,
3246,-0.0012207,0.00615234,
3248,-0.0146484,0.00618286,
3250,-0.0146484,0.00629272,
3252,0.012207,0.00639648,
3254,0.00183105,0.00623169,
3256,-0.00976563,0.00629883,
3258,-0.00732422,0.00629272,
3260,-0.0012207,0.00626221,
3262,0,0.00615845,
3264,-0.000610352,0.00613403,
3266,-0.00244141,0.00611572,
3268,-0.00732422,0.00610962,
3270,0.000610352,0.00610352,
3272,0.000610352,0.00609131,
3274,-0.0012207,0.00603027,
3276,-0.0109863,0.00609741,
3278,0.00305176,0.00612183,
3280,-0.00549316,0.00616455,
3282,0.00244141,0.00615845,
3284,-0.00305176,0.00618286,
3286,-0.00732422,0.00621948,
3288,-0.00854492,0.00621948,
3290,-0.00671387,0.0062439,
3292,0.00244141,0.00616455,
3294,-0.00610352,0.00621948,
3296,-0.00183105,0.00616455,
3298,-0.00793457,0.00615845,
3300,-0.00305176,0.006073,
3302,0.00244141,0.006073,
3304,-0.00549316,0.00606079,
3306,-0.00732422,0.0060791,
3308,-0.00915527,0.0060791,
3310,0.000610352,0.0060791,
3312,0.000610352,0.006073,
3314,-0.00427246,0.00609741,
3316,-0.0152588,0.00621948,
3318,0.0012207,0.00619507,
3320,0.00976563,0.00618896,
3322,-0.000610352,0.00609131,
3324,-0.012207,0.00609131,
3326,-0.00610352,0.00606689,
3328,0.00915527,0.00608521,
3330,-0.00183105,0.00598755,
3332,-0.000610352,0.00578613,
3334,-0.0158691,0.00585327,
3336,-0.0012207,0.00585327,
3338,-0.000610352,0.00574341,
3340,-0.00305176,0.0057251,
3342,0.00732422,0.00569458,
3344,-0.0128174,0.00581665,
3346,0.000610352,0.00578003,
3348,0.0012207,0.00578003,
3350,-0.00488281,0.0057251,
3352,0.00610352,0.00567627,
3354,-0.00183105,0.00568848,
3356,-0.0109863,0.0057251,
3358,-0.00305176,0.00567627,
3360,-0.00244141,0.00565186,
3362,0.00488281,0.00567627,
3364,-0.00610352,0.00557861,
3366,-0.00610352,0.00562134,
3368,-0.00366211,0.00561523,
3370,-0.00732422,0.00567627,
3372,0.00793457,0.00566406,
3374,-0.00732422,0.00565796,
3376,-0.00793457,0.00567627,
3378,0.00915527,0.00567017,
3380,-0.00549316,0.00570068,
3382,-0.00854492,0.00560303,
3384,0.00244141,0.00557251,
3386,-0.0109863,0.00556641,
3388,-0.00366211,0.00541382,
3390,0,0.0053833,
3392,-0.00610352,0.00543823,
3394,-0.00671387,0.00541382,
3396,-0.00549316,0.00545654,
3398,-0.00183105,0.00543823,
3400,-0.0109863,0.00549927,
3402,0.0115967,0.00560303,
3404,-0.00732422,0.00562134,
3406,-0.00427246,0.00562134,
3408,-0.00427246,0.00560913,
3410,-0.00915527,0.00560913,
3412,-0.00915527,0.00568237,
3414,0.00183105,0.00568848,
3416,-0.000610352,0.00564575,
3418,-0.0140381,0.0057251,
3420,-0.00549316,0.00574951,
3422,0.00488281,0.00567627,
3424,0.00427246,0.00564575,
3426,-0.0115967,0.00563354,
3428,-0.00366211,0.00560303,
3430,0.00183105,0.00551758,
3432,0.00244141,0.00553589,
3434,-0.00244141,0.00554199,
3436,-0.00610352,0.00547485,
3438,-0.00854492,0.00551758,
3440,0.00671387,0.00549927,
3442,0.00183105,0.00551147,
3444,-0.012207,0.00560303,
3446,-0.00732422,0.00566406,
3448,0.0109863,0.00562744,
3450,-0.00610352,0.00554199,
3452,-0.00549316,0.00547485,
3454,-0.00244141,0.00548096,
3456,0.00610352,0.00544434,
3458,-0.00549316,0.00542603,
3460,-0.0012207,0.00542603,
3462,-0.00427246,0.00546875,
3464,-0.00244141,0.00548706,
3466,-0.00366211,0.00549927,
3468,-0.00244141,0.00545044,
3470,-0.00244141,0.00546875,
3472,-0.0128174,0.00559082,
3474,0,0.00557861,
3476,0,0.00546875,
3478,-0.000610352,0.00544434,
3480,0.000610352,0.00539551,
3482,-0.00549316,0.00542603,
3484,-0.00610352,0.00545654,
3486,-0.00915527,0.00547485,
3488,0.00488281,0.00543823,
3490,-0.00244141,0.00539551,
3492,-0.00793457,0.00545044,
3494,-0.00610352,0.00545044,
3496,0.000610352,0.00543823,
3498,-0.00183105,0.0053772,
3500,-0.00244141,0.00537109,
3502,-0.00976563,0.00544434,
3504,0.0012207,0.00540161,
3506,0.00366211,0.00536499,
3508,-0.0115967,0.0053894,
3510,-0.0158691,0.00554199,
3512,-0.00427246,0.00557861,
3514,-0.00793457,0.00561523,
3516,-0.00183105,0.00548096,
3518,-0.00244141,0.00549316,
3520,-0.00976563,0.00549316,
3522,-0.00366211,0.00552368,
3524,-0.0012207,0.00541382,
3526,0,0.00535278,
3528,0.00183105,0.00527954,
3530,0.00305176,0.00529175,
3532,0.00305176,0.00531616,
3534,-0.000610352,0.00516357,
3536,-0.0109863,0.00526123,
3538,0.00488281,0.00530396,
3540,-0.00244141,0.00529785,
3542,-0.000610352,0.00523071,
3544,-0.00305176,0.00513306,
3546,-0.012207,0.00524902,
3548,-0.00854492,0.00532227,
3550,-0.00366211,0.00531006,
3552,0.00305176,0.00527954,
3554,-0.00671387,0.00532837,
3556,-0.0012207,0.00523071,
3558,-0.00671387,0.00526733,
3560,-0.00854492,0.00532837,
3562,-0.00366211,0.00531616,
3564,-0.00427246,0.00529785,
3566,-0.00610352,0.00529785,
3568,-0.00488281,0.00531006,
3570,-0.00305176,0.00526733,
3572,-0.0170898,0.00535889,
3574,0.0012207,0.00529785,
3576,0.00549316,0.00527344,
3578,-0.00610352,0.00524292,
3580,0.00244141,0.0052124,
3582,-0.00732422,0.0052002,
3584,-0.010376,0.00527954,
3586,0.00549316,0.00522461,
3588,-0.00854492,0.00527344,
3590,-0.00305176,0.00530396,
3592,-0.00183105,0.00526123,
3594,-0.00183105,0.0052124,
3596,-0.00488281,0.0052063,
3598,0.000610352,0.00519409,
3600,0.0012207,0.00509644,
3602,-0.0115967,0.00509644,
3604,0.00305176,0.00505371,
3606,0.00671387,0.00507813,
3608,-0.00427246,0.00507813,
3610,-0.00976563,0.00508423,
3612,-0.0115967,0.00510864,
3614,0.00732422,0.00516357,
3616,0.0134277,0.00529175,
3618,-0.00854492,0.00523682,
3620,0.00549316,0.00523682,
3622,0.010376,0.00529175,
3624,-0.0170898,0.00541992,
3626,-0.00610352,0.00536499,
3628,0.0274658,0.00560303,
3630,-0.012207,0.00570679,
3632,-0.0140381,0.00582275,
3634,-0.00732422,0.00587158,
3636,-0.00610352,0.00587158,
3638,-0.0140381,0.00592651,
3640,-0.00488281,0.0059082,
3642,-0.00366211,0.00592651,
3644,-0.000610352,0.00581055,
3646,-0.00244141,0.00576172,
3648,-0.00427246,0.00569458,
3650,0.00976563,0.0057312,
3652,0.00854492,0.00576172,
3654,0.00854492,0.00582275,
3656,-0.00854492,0.00584717,
3658,0.000610352,0.00579834,
3660,0.00305176,0.00581665,
3662,-0.00549316,0.00582886,
3664,0.0146484,0.00595093,
3666,-0.0115967,0.00603027,
3668,0.0195313,0.00620117,
3670,-0.0177002,0.00635376,
3672,0.0140381,0.00636597,
3674,0.00549316,0.0064209,
3676,-0.00305176,0.00645142,
3678,0.00488281,0.00649414,
3680,0.0012207,0.00650024,
3682,0.0231934,0.00667725,
3684,-0.00183105,0.00663452,
3686,-0.0128174,0.00667114,
3688,0.0238037,0.00686035,
3690,-0.012207,0.00695801,
3692,0.000610352,0.00688477,
3694,0.0366211,0.00718994,
3696,-0.0201416,0.00738525,
3698,-0.0305176,0.00767212,
3700,0.022583,0.00787354,
3702,-0.0012207,0.00778809,
3704,-0.0231934,0.00800781,
3706,-0.010376,0.00807495,
3708,0.00671387,0.00802612,
3710,-0.00488281,0.00791626,
3712,-0.00915527,0.00796509,
3714,-0.00183105,0.00790405,
3716,-0.00427246,0.00792847,
3718,-0.00793457,0.0079834,
3720,-0.00671387,0.00795288,
3722,-0.0115967,0.00803223,
3724,-0.00854492,0.00810547,
3726,-0.0195313,0.00830078,
3728,-0.00793457,0.00836182,
3730,-0.0213623,0.00854492,
3732,-0.0164795,0.0086792,
3734,0.0128174,0.00880127,
3736,-0.00671387,0.00875854,
3738,-0.0219727,0.00892944,
3740,0.00183105,0.00892334,
3742,-0.00244141,0.00894165,
3744,0.000610352,0.00891724,
3746,0.0189209,0.00898438,
3748,-0.00671387,0.00896606,
3750,0.0195313,0.00912476,
3752,0.0134277,0.00922852,
3754,-0.00305176,0.00919189,
3756,0.020752,0.00938721,
3758,0.0408936,0.009729,
3760,0.0604248,0.0102478,
3762,0.0762939,0.0109741,
3764,0.012207,0.0110535,
3766,0.0811768,0.0118042,
3768,0.0421143,0.0121765,
3770,0.010376,0.0122498,
3772,0.0537109,0.012616,
3774,-0.0201416,0.0128052,
3776,-0.0500488,0.0132507,
3778,-0.0488281,0.013678,
3780,-0.0427246,0.0140808,
3782,-0.065918,0.0146667,
3784,-0.0402832,0.0149658,
3786,0.000610352,0.014917,
3788,-0.00366211,0.0148682,
3790,-0.0140381,0.014978,
3792,0.00305176,0.0149902,
3794,0.032959,0.0153015,
3796,0.022583,0.0154785,
3798,-0.0561523,0.0160339,
3800,-0.0262451,0.0162842,
3802,-0.0115967,0.0162842,
3804,-0.0408936,0.0166626,
3806,-0.0335693,0.0169312,
3808,-0.0244141,0.0171326,
3810,0.010376,0.0171387,
3812,-0.00305176,0.0170532,
3814,-0.0341797,0.0173218,
3816,0.00976563,0.0172852,
3818,0.00427246,0.0172424,
3820,-0.0262451,0.01745,
3822,0.00976563,0.0174438,
3824,-0.0244141,0.0175171,
3826,-0.00305176,0.0174866,
3828,0.000610352,0.017218,
3830,0.00427246,0.0171387,
3832,-0.0189209,0.0171875,
3834,-0.010376,0.017218,
3836,0.0598145,0.0177551,
3838,-0.0488281,0.018103,
3840,0.0445557,0.0184998,
3842,0.0518799,0.0189819,
3844,-0.00671387,0.019043,
3846,-0.0402832,0.0194214,
3848,0.0860596,0.0202393,
3850,-0.00854492,0.0202271,
3852,0.0701904,0.0208435,
3854,0.00549316,0.020813,
3856,-0.00488281,0.0207764,
3858,-0.00671387,0.0208374,
3860,0.0262451,0.0210693,
3862,0.00488281,0.0210632,
3864,0.0415039,0.0213318,
3866,-0.0280762,0.0214966,
3868,0.0183105,0.0214844,
3870,-0.0012207,0.0213196,
3872,0.000610352,0.0211853,
3874,-0.00488281,0.0211792,
3876,0.00488281,0.0211975,
3878,0.0115967,0.0212646,
3880,0.00183105,0.0212708,
3882,-0.0604248,0.0216431,
3884,-0.0164795,0.0217896,
3886,-0.012207,0.0217834,
3888,-0.010376,0.0216492,
3890,-0.0476074,0.0220032,
3892,-0.0292969,0.02229,
3894,-0.0610352,0.0225342,
3896,0.00183105,0.0223511,
3898,0.0500488,0.0225464,
3900,-0.0268555,0.0225891,
3902,-0.0250244,0.0228271,
3904,0.0177002,0.0227722,
3906,0.0518799,0.0231873,
3908,0,0.0231201,
3910,-0.020752,0.0232788,
3912,0.0115967,0.0233032,
3914,0.020752,0.0234924,
3916,0.057373,0.0240234,
3918,0.0585938,0.02453,
3920,0.101318,0.0254761,
3922,-0.0518799,0.0258789,
3924,-0.0354004,0.0261475,
3926,0.108643,0.0270386,
3928,0.0842285,0.0278015,
3930,0.0762939,0.0283508,
3932,-0.0311279,0.0284973,
3934,-0.0756836,0.029126,
3936,0.0817871,0.0298767,
3938,0.0848389,0.0305054,
3940,-0.0762939,0.03125,
3942,-0.00549316,0.0312805,
3944,-0.0671387,0.0319458,
3946,-0.0201416,0.031958,
3948,-0.0408936,0.0322998,
3950,-0.0500488,0.032605,
3952,-0.0140381,0.0326111,
3954,0.0445557,0.0330261,
3956,-0.0231934,0.0330505,
3958,-0.0445557,0.0330872,
3960,0.0231934,0.0327148,
3962,0.0317383,0.0322693,
3964,-0.00427246,0.0321899,
3966,-0.0354004,0.0317322,
3968,-0.000610352,0.0313171,
3970,-0.0134277,0.0313477,
3972,-0.057373,0.0313843,
3974,0.0213623,0.0313965,
3976,-0.00305176,0.0309265,
3978,0.00305176,0.0304688,
3980,0.0531006,0.0305725,
3982,0.010376,0.0300171,
3984,-0.0146484,0.0297607,
3986,0.0805664,0.0305603,
3988,0.0268555,0.0307922,
3990,0.00549316,0.0307068,
3992,0.0689697,0.031366,
3994,0.0152588,0.031189,
3996,-0.032959,0.0312927,
3998,-0.0512695,0.0312439,
4000,0.0323486,0.0313049,
4002,0.0012207,0.0312012,
4004,0.0720215,0.0315125,
4006,0.0378418,0.0315552,
4008,0.0158691,0.0314697,
4010,-0.045166,0.0318176,
4012,0.0396729,0.0321838,
4014,0.0640869,0.0324829,
4016,0.00793457,0.0324646,
4018,0.0134277,0.0325562,
4020,-0.0634766,0.0329285,
4022,-0.0463867,0.0332947,
4024,0.000610352,0.0330566,
4026,-0.00183105,0.0330444,
4028,-0.020752,0.0332458,
4030,-0.0592041,0.0337952,
4032,0.00488281,0.0336548,
4034,-0.0164795,0.0337158,
4036,-0.00732422,0.0331909,
4038,-0.00610352,0.0327637,
4040,-0.0384521,0.0327026,
4042,-0.0134277,0.0323181,
4044,-0.00488281,0.0322998,
4046,0.00854492,0.0319824,
4048,0.0408936,0.0315308,
4050,0.00427246,0.031488,
4052,0.0372314,0.0311584,
4054,0,0.0311035,
4056,0.0250244,0.0313049,
4058,0.0170898,0.0314087,
4060,0.045166,0.0315979,
4062,0.00732422,0.0316223,
4064,-0.012207,0.0313293,
4066,0.0115967,0.0311646,
4068,0.0915527,0.031897,
4070,-0.0463867,0.0323486,
4072,-0.00183105,0.0323608,
4074,0.057373,0.0328857,
4076,0.0671387,0.0335083,
4078,-0.0262451,0.0336548,
4080,0.0390625,0.0340271,
4082,0.117798,0.0346008,
4084,-0.00183105,0.0344543,
4086,-0.0476074,0.0348083,
4088,-0.0109863,0.0348145,
4090,0.045166,0.03479,
4092,0.00305176,0.0345276,
4094,-0.0268555,0.0341858,
4096,-0.0396729,0.0345642,
4098,0.012207,0.0341858,
4100,-0.0134277,0.0340515,
4102,0.0543213,0.0343445,
4104,0.0164795,0.0343323,
4106,-0.0476074,0.0342896,
4108,0.0201416,0.034491,
4110,0.0671387,0.0349548,
4112,0.00854492,0.0349243,
4114,0.00305176,0.0347473,
4116,-0.0195313,0.0343689,
4118,0.0537109,0.0343201,
4120,0.0305176,0.0336121,
4122,-0.0598145,0.0336914,
4124,0.0634766,0.0339722,
4126,0.0384521,0.0332703,
4128,0.0012207,0.0324402,
4130,0.0158691,0.0318359,
4132,0.0268555,0.0317932,
4134,-0.022583,0.0312622,
4136,0.0378418,0.0308228,
4138,0.0317383,0.0302917,
4140,-0.0231934,0.0297607,
4142,0.0408936,0.0301147,
4144,0.00427246,0.0294861,
4146,-0.0335693,0.0296204,
4148,0.0128174,0.0293396,
4150,0.0274658,0.0291138,
4152,-0.00915527,0.0290649,
4154,0.0372314,0.0289917,
4156,0.0482178,0.0292419,
4158,0.0183105,0.0289795,
4160,-0.0170898,0.0289185,
4162,0.0543213,0.0291443,
4164,0.0616455,0.029718,
4166,0.0244141,0.0296082,
4168,0.0170898,0.0297729,
4170,-0.0286865,0.0299255,
4172,0.00427246,0.0293945,
4174,-0.0134277,0.0293152,
4176,-0.057373,0.0298584,
4178,-0.0256348,0.0300842,
4180,-0.000610352,0.0295593,
4182,-0.0152588,0.0296082,
4184,-0.010376,0.0295654,
4186,0.022583,0.0289856,
4188,-0.0109863,0.0288269,
4190,-0.00183105,0.0287903,
4192,0.020752,0.0283081,
4194,-0.010376,0.0282593,
4196,0.0109863,0.0280396,
4198,-0.00854492,0.0276123,
4200,-0.0213623,0.0275024,
4202,-0.0152588,0.0276428,
4204,0.00732422,0.0269958,
4206,0.00671387,0.0266846,
4208,0,0.0265259,
4210,0.0610352,0.0266846,
4212,-0.0531006,0.0268188,
4214,0.03479,0.0265259,
4216,0.020752,0.0266541,
4218,-0.00244141,0.0265442,
4220,0.00244141,0.0259338,
4222,0.020752,0.0256775,
4224,0.0384521,0.0260559,
4226,-0.0189209,0.0262268,
4228,0.0653076,0.0266724,
4230,0.0201416,0.0262817,
4232,-0.0292969,0.0265259,
4234,-0.0201416,0.0265625,
4236,0.0286865,0.0267761,
4238,-0.0219727,0.0269348,
4240,-0.022583,0.0267761,
4242,-0.0250244,0.0268921,
4244,0.0115967,0.0269592,
4246,-0.0457764,0.0273315,
4248,-0.0146484,0.0270691,
4250,-0.0164795,0.0271912,
4252,0.0128174,0.026947,
4254,-0.00915527,0.0270386,
4256,0.0512695,0.027301,
4258,-0.010376,0.0272339,
4260,-0.0335693,0.0271179,
4262,-0.032959,0.0273743,
4264,0.045166,0.0277039,
4266,-0.00488281,0.0276367,
4268,-0.0585938,0.0273071,
4270,-0.0128174,0.0269714,
4272,-0.0427246,0.0273804,
4274,-0.0256348,0.027063,
4276,0.000610352,0.0263977,
4278,-0.0469971,0.0266052,
4280,0.00793457,0.0262939,
4282,-0.00427246,0.0251587,
4284,0.0146484,0.0252869,
4286,0.00671387,0.0248779,
4288,-0.0134277,0.0249023,
4290,0.0158691,0.0246094,
4292,0.0183105,0.024762,
4294,-0.0250244,0.0247437,
4296,-0.032959,0.0246765,
4298,0.032959,0.024884,
4300,0.0506592,0.0252563,
4302,0.0500488,0.0252136,
4304,-0.0549316,0.0255981,
4306,-0.0189209,0.0253113,
4308,0.0811768,0.0259216,
4310,0.00427246,0.025293,
4312,-0.0274658,0.0254822,
4314,0.0390625,0.0258423,
4316,-0.0262451,0.0259094,
4318,-0.0323486,0.0256958,
4320,0.0799561,0.0261902,
4322,0.0274658,0.0258667,
4324,-0.00732422,0.0253052,
4326,0.00244141,0.0249451,
4328,-0.00793457,0.0250122,
4330,-0.0201416,0.0250549,
4332,-0.0195313,0.0249817,
4334,-0.0177002,0.0249329,
4336,-0.0579834,0.0251343,
4338,-0.0463867,0.0252808,
4340,-0.0457764,0.0255066,
4342,0.00366211,0.0251343,
4344,-0.03479,0.0254395,
4346,-0.0250244,0.025354,
4348,-0.00732422,0.0252991,
4350,-0.022583,0.0252502,
4352,-0.0170898,0.0253296,
4354,0.0109863,0.0250671,
4356,0.00854492,0.0246704,
4358,-0.010376,0.0245911,
4360,0.0140381,0.0245605,
4362,0.0323486,0.0243408,
4364,-0.00793457,0.0238037,
4366,0.00366211,0.0235962,
4368,-0.00488281,0.0234741,
4370,0.00366211,0.0232239,
4372,0.00366211,0.0232178,
4374,0.0231934,0.0233154,
4376,0.00732422,0.0228149,
4378,-0.032959,0.0228882,
4380,-0.0286865,0.0231689,
4382,0.0244141,0.0232605,
4384,0.0262451,0.0234192,
4386,-0.0421143,0.0236145,
4388,0.0128174,0.0236328,
4390,0.0891113,0.0245056,
4392,0.0292969,0.0245911,
4394,-0.0488281,0.0249756,
4396,-0.0341797,0.0252075,
4398,0.0927734,0.0260498,
4400,0.0946045,0.0267822,
4402,-0.0482178,0.0271118,
4404,-0.0598145,0.0276367,
4406,0.0524902,0.0280945,
4408,-0.00305176,0.028125,
4410,-0.0714111,0.0282288,
4412,-0.0323486,0.0280212,
4414,-0.00793457,0.0277527,
4416,0.00366211,0.0275818,
4418,-0.0195313,0.0277527,
4420,-0.0183105,0.0279114,
4422,0.0012207,0.0277161,
4424,0.0152588,0.0274841,
4426,0.0164795,0.0274597,
4428,0.0787354,0.027594,
4430,-0.00732422,0.0274658,
4432,-0.0817871,0.0279907,
4434,0.00854492,0.0278748,
4436,0.0256348,0.0278442,
4438,-0.0421143,0.0280457,
4440,-0.0836182,0.028656,
4442,-0.0421143,0.0288269,
4444,0.0109863,0.0288208,
4446,-0.0305176,0.0286682,
4448,-0.0128174,0.0286499,
4450,0.0311279,0.0287964,
4452,-0.0299072,0.0289673,
4454,0.022583,0.0291016,
4456,-0.0262451,0.0288513,
4458,-0.00915527,0.0288391,
4460,0.0012207,0.0285156,
4462,0.0170898,0.0283569,
4464,-0.00488281,0.0279541,
4466,-0.00183105,0.0279236,
4468,-0.0195313,0.027533,
4470,0.000610352,0.0274109,
4472,0.0256348,0.02724,
4474,0.0482178,0.0274658,
4476,-0.00305176,0.0274902,
4478,-0.0231934,0.0272522,
4480,0.00793457,0.0272522,
4482,0.00305176,0.02724,
4484,-0.00671387,0.0271606,
4486,0.0274658,0.0273682,
4488,-0.0231934,0.0274658,
4490,-0.00976563,0.0274048,
4492,0.0195313,0.027417,
4494,-0.0384521,0.0275513,
4496,0.00671387,0.0272888,
4498,0.0750732,0.02771,
4500,0.0177002,0.0273804,
4502,0.0256348,0.0271362,
4504,0.00976563,0.0266846,
4506,-0.0183105,0.0266785,
4508,-0.0177002,0.0260437,
4510,0.0177002,0.026178,
4512,-0.00610352,0.0259644,
4514,0.0177002,0.0257507,
4516,-0.0512695,0.026001,
4518,-0.0805664,0.0264832,
4520,0.00671387,0.0257507,
4522,0.0238037,0.0257141,
4524,0.0378418,0.0260193,
4526,-0.0268555,0.0262634,
4528,-0.0537109,0.0267212,
4530,-0.00244141,0.0265442,
4532,0.00915527,0.0264404,
4534,0.00427246,0.0263062,
4536,0.010376,0.0258301,
4538,0.0512695,0.0258789,
4540,0.0177002,0.0255981,
4542,-0.0744629,0.0263062,
4544,0.0738525,0.0266968,
4546,-0.0292969,0.0267395,
4548,-0.0109863,0.0267761,
4550,-0.0109863,0.0266602,
4552,-0.057373,0.027063,
4554,-0.0299072,0.0272522,
4556,-0.0634766,0.0278015,
4558,-0.000610352,0.0277039,
4560,0.0311279,0.0278748,
4562,-0.0384521,0.0279358,
4564,-0.00244141,0.0278809,
4566,0.0128174,0.0279724,
4568,-0.00671387,0.0279907,
4570,-0.0158691,0.0281128,
4572,0.0109863,0.028186,
4574,-0.00366211,0.0279907,
4576,-0.0201416,0.0281189,
4578,0.0384521,0.0281738,
4580,-0.0256348,0.0281433,
4582,0.00366211,0.0279358,
4584,0.022583,0.0278992,
4586,-0.000610352,0.0274841,
4588,-0.00915527,0.0274475,
4590,-0.0140381,0.0266968,
4592,-0.000610352,0.0264099,
4594,-0.0140381,0.026062,
4596,0.0372314,0.0260925,
4598,-0.0152588,0.0253174,
4600,-0.0500488,0.0248718,
4602,0.0341797,0.0247314,
4604,0.0115967,0.0242493,
4606,-0.0195313,0.0239197,
4608,-0.00915527,0.0239807,
4610,0.0738525,0.0240051,
4612,0.00488281,0.0237305,
4614,-0.0506592,0.0241577,
4616,0.0109863,0.024231,
4618,0.0708008,0.0247437,
4620,-0.0311279,0.0248718,
4622,-0.0335693,0.0251953,
4624,0,0.0250427,
4626,-0.0256348,0.0251343,
4628,-0.0402832,0.0247498,
4630,0.0012207,0.0246887,
4632,-0.0201416,0.0240723,
4634,-0.0146484,0.0241333,
4636,-0.00549316,0.0239319,
4638,0.0109863,0.0236206,
4640,0.0115967,0.0229004,
4642,-0.0158691,0.0226379,
4644,0.0268555,0.0227966,
4646,-0.00183105,0.0225098,
4648,-0.0201416,0.022583,
4650,0.00488281,0.0223206,
4652,-0.00244141,0.0220459,
4654,-0.0238037,0.0220581,
4656,-0.00976563,0.0218933,
4658,-0.0262451,0.0220642,
4660,-0.0183105,0.0222351,
4662,0.00488281,0.022113,
4664,0.0140381,0.0222046,
4666,-0.0189209,0.0223755,
4668,0.0012207,0.0221924,
4670,-0.00793457,0.0222656,
4672,-0.00427246,0.022052,
4674,0.00915527,0.0216614,
4676,0.0183105,0.021814,
4678,-0.0189209,0.0217712,
4680,-0.0286865,0.0219788,
4682,0.0341797,0.02229,
4684,-0.00854492,0.0223083,
4686,-0.00549316,0.0220886,
4688,-0.00366211,0.0218933,
4690,-0.0183105,0.0219788,
4692,-0.012207,0.0219055,
4694,-0.012207,0.0216431,
4696,-0.000610352,0.021582,
4698,-0.0109863,0.0209412,
4700,-0.00854492,0.0208496,
4702,0.00244141,0.0206177,
4704,0.0195313,0.0207153,
4706,-0.0335693,0.0208679,
4708,-0.0115967,0.0208069,
4710,0.0463867,0.0210938,
4712,0.0128174,0.0211609,
4714,0.00610352,0.0210449,
4716,-0.0146484,0.0206787,
4718,-0.0170898,0.0200439,
4720,0.00305176,0.0200073,
4722,0.0256348,0.0200256,
4724,-0.0109863,0.0197571,
4726,-0.0427246,0.0199158,
4728,-0.012207,0.0195007,
4730,0.00671387,0.0195435,
4732,-0.0238037,0.0196899,
4734,0.0189209,0.0198364,
4736,0.0256348,0.019989,
4738,-0.000610352,0.0194824,
4740,-0.00183105,0.0193237,
4742,-0.0134277,0.0187134,
4744,0.0311279,0.0182861,
4746,0.0134277,0.0181274,
4748,-0.00610352,0.0180786,
4750,-0.0341797,0.0183105,
4752,0.0183105,0.0179199,
4754,0.0268555,0.0178894,
4756,-0.0439453,0.0176941,
4758,0.0354004,0.018042,
4760,0.00854492,0.0178162,
4762,-0.0311279,0.0177429,
4764,0.010376,0.0178223,
4766,-0.0115967,0.0178101,
4768,0,0.0177429,
4770,-0.0177002,0.0177612,
4772,-0.0219727,0.0178711,
4774,-0.00793457,0.0179138,
4776,0.00366211,0.017749,
4778,-0.0292969,0.0176575,
4780,-0.0140381,0.0175415,
4782,-0.00366211,0.0175415,
4784,0.0109863,0.0174255,
4786,0.0128174,0.0175476,
4788,-0.0396729,0.0178528,
4790,0.00549316,0.0177673,
4792,-0.0177002,0.0179382,
4794,0.0158691,0.0179565,
4796,0.0335693,0.0179199,
4798,-0.00854492,0.0178528,
4800,-0.0115967,0.0174683,
4802,-0.012207,0.0172485,
4804,0.0146484,0.0172791,
4806,-0.00793457,0.0171631,
4808,-0.0152588,0.0172241,
4810,0.020752,0.0166931,
4812,-0.0164795,0.0168091,
4814,-0.0274658,0.0165771,
4816,-0.00732422,0.0165405,
4818,-0.00427246,0.0158752,
4820,0.0335693,0.0158997,
4822,-0.00427246,0.0156067,
4824,0.0146484,0.0157532,
4826,-0.012207,0.0156189,
4828,0.00244141,0.0152405,
4830,0.0561523,0.0157898,
4832,-0.00183105,0.0156067,
4834,-0.0305176,0.0157654,
4836,0,0.0157104,
4838,0.00610352,0.0156616,
4840,-0.0390625,0.0159363,
4842,0.00488281,0.0158264,
4844,0.00671387,0.015625,
4846,-0.0372314,0.015979,
4848,-0.0231934,0.0160095,
4850,0.0109863,0.0160706,
4852,0.0335693,0.0163818,
4854,-0.00732422,0.016217,
4856,0,0.0161194,
4858,-0.0292969,0.0161499,
4860,-0.0012207,0.015979,
4862,-0.00305176,0.0159607,
4864,0.0262451,0.0160828,
4866,-0.0201416,0.016095,
4868,-0.0274658,0.0163574,
4870,-0.0164795,0.0164429,
4872,0.0128174,0.0165283,
4874,0.00366211,0.0164734,
4876,0.0299072,0.0165894,
4878,-0.00427246,0.0164429,
4880,0.000610352,0.0161621,
4882,0.0396729,0.016217,
4884,-0.0250244,0.0163818,
4886,-0.0109863,0.0164368,
4888,0.010376,0.0165039,
4890,-0.0219727,0.0165405,
4892,-0.00366211,0.0164551,
4894,-0.0152588,0.0164856,
4896,0.045166,0.0169312,
4898,-0.0012207,0.0168335,
4900,0.000610352,0.0167542,
4902,-0.0360107,0.0170898,
4904,0.0311279,0.0172058,
4906,0.00793457,0.0169495,
4908,-0.00793457,0.0169128,
4910,-0.0299072,0.016748,
4912,-0.0164795,0.0167847,
4914,0.0415039,0.0171387,
4916,-0.065918,0.0176514,
4918,0.00244141,0.0175049,
4920,0.020752,0.0176819,
4922,0.0183105,0.0176086,
4924,-0.00854492,0.0175842,
4926,-0.0213623,0.0173706,
4928,-0.0292969,0.0175415,
4930,0.010376,0.0175781,
4932,-0.0109863,0.01745,
4934,-0.0146484,0.0174072,
4936,0.00488281,0.0171997,
4938,0.0158691,0.0173523,
4940,-0.03479,0.0176819,
4942,0.0158691,0.0177063,
4944,-0.0250244,0.0176453,
4946,0.0134277,0.0176453,
4948,0.0164795,0.017749,
4950,-0.0195313,0.0176025,
4952,-0.00549316,0.0174744,
4954,0.0238037,0.0174438,
4956,0.0286865,0.0172913,
4958,-0.0305176,0.0172424,
4960,-0.0201416,0.0173584,
4962,0.0146484,0.0171936,
4964,0.0335693,0.0174255,
4966,-0.0189209,0.0174988,
4968,-0.0305176,0.017804,
4970,0.0109863,0.0177368,
4972,-0.00793457,0.0175964,
4974,-0.00366211,0.0175537,
4976,-0.0238037,0.0177551,
4978,0,0.0174622,
4980,0.0158691,0.0174805,
4982,0.0231934,0.0176758,
4984,0.012207,0.017688,
4986,0.00488281,0.0176086,
4988,-0.0244141,0.0174561,
4990,0.0445557,0.0178467,
4992,0.0146484,0.0178162,
4994,-0.0274658,0.0179321,
4996,-0.0292969,0.0178894,
4998,0.00915527,0.0178955,
5000,-0.0250244,0.0180298,
5002,-0.0341797,0.0182495,
5004,-0.0152588,0.0182556,
5006,0.00732422,0.0182495,
5008,0.0128174,0.0182251,
5010,0.00183105,0.0180359,
5012,0.0250244,0.0181213,
5014,-0.0219727,0.0180664,
5016,0.0286865,0.01828,
5018,0.00854492,0.0183228,
5020,-0.00732422,0.0180603,
5022,0.00549316,0.0180725,
5024,-0.00549316,0.017981,
5026,0.00366211,0.0178955,
5028,0.00183105,0.0178894,
5030,-0.0488281,0.0178162,
5032,0.00854492,0.0178833,
5034,0.00793457,0.0176575,
5036,-0.0177002,0.0178345,
5038,0.0012207,0.0177856,
5040,-0.0317383,0.0177124,
5042,-0.0115967,0.0177795,
5044,0.00671387,0.0177795,
5046,-0.0164795,0.017572,
5048,-0.0152588,0.0174927,
5050,-0.00488281,0.0174316,
5052,-0.00488281,0.0171448,
5054,0.00427246,0.0171143,
5056,-0.0274658,0.0173889,
5058,0.010376,0.0171997,
5060,-0.00366211,0.0172241,
5062,-0.0109863,0.0173035,
5064,0.00366211,0.0170776,
5066,0.0140381,0.0170166,
5068,0,0.0167419,
5070,0.0195313,0.0167725,
5072,0.00244141,0.0166687,
5074,-0.00183105,0.0166504,
5076,0.0848389,0.0171997,
5078,-0.00854492,0.0172424,
5080,-0.0341797,0.0175781,
5082,-0.00427246,0.0172241,
5084,0.00854492,0.0170593,
5086,-0.000610352,0.0169556,
5088,-0.0366211,0.017218,
5090,-0.0360107,0.0173584,
5092,-0.0158691,0.0174805,
5094,0.0238037,0.0175659,
5096,-0.0305176,0.0174194,
5098,0.0134277,0.0175415,
5100,0.00793457,0.0176147,
5102,0.00427246,0.0172974,
5104,0.0170898,0.017157,
5106,-0.00366211,0.0171143,
5108,-0.00976563,0.0171326,
5110,-0.0231934,0.0170654,
5112,0.0140381,0.017041,
5114,-0.010376,0.0167297,
5116,-0.0317383,0.0163879,
5118,0.00305176,0.016394,
5120,0.022583,0.0164124,
5122,-0.0152588,0.0163818,
5124,-0.00549316,0.0163513,
5126,0.043335,0.016571,
5128,-0.0012207,0.0162903,
5130,0.00244141,0.0162109,
5132,0.0134277,0.0162354,
5134,-0.0134277,0.0162231,
5136,0.0177002,0.0163513,
5138,-0.0238037,0.0164307,
5140,-0.0323486,0.0164063,
5142,-0.00427246,0.0162903,
5144,0.0128174,0.0161682,
5146,0.0506592,0.0165405,
5148,-0.0512695,0.0168884,
5150,-0.0177002,0.0168701,
5152,0.0445557,0.0172607,
5154,0,0.0170227,
5156,-0.0402832,0.0171387,
5158,-0.0128174,0.0169617,
5160,-0.00854492,0.0168457,
5162,-0.012207,0.0168213,
5164,-0.0134277,0.0166199,
5166,-0.00488281,0.0164795,
5168,-0.00915527,0.0162659,
5170,0.0640869,0.0167969,
5172,0.0671387,0.0173889,
5174,-0.0238037,0.0175903,
5176,-0.0335693,0.017688,
5178,0.0134277,0.0178223,
5180,0.0360107,0.0180237,
5182,0.0012207,0.017804,
5184,-0.0482178,0.0181641,
5186,-0.0561523,0.0186768,
5188,0.00732422,0.0185059,
5190,-0.0158691,0.018219,
5192,-0.0128174,0.0182007,
5194,-0.00549316,0.017981,
5196,0.0152588,0.0178406,
5198,0.0195313,0.0179443,
5200,-0.00549316,0.017749,
5202,-0.0250244,0.0176575,
5204,0.0170898,0.0176758,
5206,-0.00793457,0.0176819,
5208,-0.00854492,0.0176392,
5210,-0.0115967,0.0177368,
5212,-0.0195313,0.0176819,
5214,0.0134277,0.0175964,
5216,-0.00671387,0.0173767,
5218,0.00183105,0.0173096,
5220,-0.022583,0.0174622,
5222,-0.0109863,0.0175171,
5224,0.0366211,0.0178284,
5226,-0.022583,0.0180176,
5228,0.0152588,0.0181519,
5230,0.00183105,0.0176819,
5232,-0.0189209,0.0177856,
5234,0.00305176,0.0177368,
5236,0.0482178,0.018042,
5238,0.0219727,0.0182495,
5240,-0.0286865,0.018219,
5242,0.00305176,0.0181335,
5244,0.0305176,0.0183716,
5246,0.00305176,0.0182373,
5248,-0.00183105,0.018103,
5250,-0.0219727,0.0182739,
5252,-0.0335693,0.0185608,
5254,0.0231934,0.01875,
5256,-0.0189209,0.0186646,
5258,-0.0189209,0.01875,
5260,0.0134277,0.0188477,
5262,-0.0231934,0.0189697,
5264,-0.00671387,0.0190002,
5266,0.010376,0.0189636,
5268,-0.000610352,0.0189697,
5270,-0.00732422,0.0188477,
5272,0.0262451,0.0190857,
5274,0.0286865,0.0193542,
5276,-0.00244141,0.0185303,
5278,0.00366211,0.0184814,
5280,0.0115967,0.0182556,
5282,0.00732422,0.0182861,
5284,0.00671387,0.0182678,
5286,0.00427246,0.0183044,
5288,0.0170898,0.0181091,
5290,-0.0439453,0.0181885,
5292,-0.0476074,0.0185059,
5294,0.032959,0.0185974,
5296,-0.00183105,0.0183105,
5298,-0.00366211,0.0182129,
5300,-0.0213623,0.0183472,
5302,-0.010376,0.0184082,
5304,-0.0140381,0.0183777,
5306,0.00427246,0.0183838,
5308,0.00671387,0.0183533,
5310,-0.0164795,0.0182861,
5312,0.00366211,0.0181824,
5314,-0.00732422,0.0181519,
5316,0.010376,0.0179382,
5318,-0.00366211,0.0179443,
5320,-0.0158691,0.0178772,
5322,-0.00610352,0.0177856,
5324,0.00732422,0.017804,
5326,0.00915527,0.0174622,
5328,-0.010376,0.0175537,
5330,0.012207,0.0176514,
5332,0.0250244,0.0177673,
5334,-0.0256348,0.0178894,
5336,0.0317383,0.0180298,
5338,-0.0164795,0.0179565,
5340,0.0140381,0.0177734,
5342,-0.00366211,0.0177673,
5344,-0.00793457,0.0177185,
5346,0.0152588,0.0173645,
5348,0.00793457,0.0169312,
5350,0.00305176,0.0167847,
5352,0.00183105,0.0163574,
5354,0.0012207,0.0163696,
5356,0.0128174,0.016095,
5358,-0.00732422,0.01604,
5360,0.0250244,0.0162048,
5362,0.00488281,0.0161316,
5364,-0.0457764,0.0164551,
5366,-0.00793457,0.0164856,
5368,-0.0012207,0.0164063,
5370,0.00610352,0.0158264,
5372,0.00610352,0.0152161,
5374,-0.00732422,0.0150513,
5376,-0.0256348,0.0149719,
5378,-0.000610352,0.0148437,
5380,-0.00427246,0.0145264,
5382,0.00976563,0.0146118,
5384,-0.00366211,0.0141663,
5386,-0.00732422,0.013678,
5388,0.00793457,0.0136841,
5390,0.00915527,0.0136169,
5392,0.00610352,0.0135498,
5394,0.0140381,0.0136353,
5396,0,0.0134827,
5398,-0.0109863,0.0133972,
5400,0.0286865,0.0136292,
5402,0.000610352,0.013385,
5404,-0.0195313,0.0134094,
5406,0.0585938,0.013916,
5408,-0.0366211,0.0141968,
5410,0.000610352,0.0140869,
5412,0.00732422,0.0139648,
5414,0.0201416,0.014032,
5416,-0.0384521,0.0143494,
5418,0.00671387,0.0143982,
5420,0.0360107,0.0145325,
5422,-0.0231934,0.0146545,
5424,-0.0140381,0.0144287,
5426,-0.00793457,0.0142822,
5428,0.0201416,0.0143311,
5430,0.00854492,0.0143982,
5432,0.00427246,0.0142517,
5434,-0.0268555,0.0144897,
5436,-0.0177002,0.0141846,
5438,0.00305176,0.0139954,
5440,-0.00488281,0.0137573,
5442,0.00976563,0.0138245,
5444,0.012207,0.0136414,
5446,-0.0134277,0.0137451,
5448,0,0.0137268,
5450,-0.00549316,0.013562,
5452,-0.000610352,0.0132324,
5454,0.0012207,0.0130127,
5456,0.00549316,0.0128784,
5458,0.0262451,0.0129517,
5460,0.0299072,0.0131165,
5462,0.012207,0.0130066,
5464,0.0201416,0.0131409,
5466,0.0744629,0.0137817,
5468,-0.0256348,0.014032,
5470,0.00305176,0.0139893,
5472,0.00610352,0.0137878,
5474,0.00915527,0.0135925,
5476,-0.0238037,0.0138062,
5478,-0.0543213,0.0143127,
5480,-0.043335,0.0146301,
5482,0.00305176,0.0145874,
5484,-0.0164795,0.0146851,
5486,-0.0354004,0.0149963,
5488,-0.00244141,0.0148499,
5490,0.000610352,0.0144165,
5492,0.00488281,0.0139893,
5494,-0.00183105,0.013678,
5496,-0.0177002,0.0138367,
5498,0.0183105,0.0139832,
5500,-0.00549316,0.0138245,
5502,0.0292969,0.0140137,
5504,-0.0128174,0.0140015,
5506,-0.0231934,0.0141907,
5508,-0.00915527,0.0142151,
5510,0.0195313,0.0142456,
5512,0.00366211,0.0142456,
5514,0.000610352,0.0141785,
5516,-0.00671387,0.0141418,
5518,-0.00793457,0.0141846,
5520,0.00427246,0.0140686,
5522,0.00366211,0.0140442,
5524,0.00915527,0.0140625,
5526,0.0128174,0.0140991,
5528,-0.0219727,0.0142151,
5530,0.00183105,0.0141113,
5532,-0.00671387,0.0139282,
5534,0.00976563,0.0137695,
5536,0.0128174,0.0135803,
5538,-0.00854492,0.013501,
5540,-0.0195313,0.0135559,
5542,0.0177002,0.0136963,
5544,0.0158691,0.0137756,
5546,0.00427246,0.0136658,
5548,-0.0292969,0.0138794,
5550,0.0115967,0.0139648,
5552,0.0164795,0.0141113,
5554,0.0341797,0.0144409,
5556,-0.0109863,0.0144226,
5558,-0.0366211,0.0147156,
5560,0.00854492,0.0145508,
5562,0.03479,0.0148499,
5564,-0.0146484,0.0145386,
5566,0.0170898,0.0146301,
5568,-0.00732422,0.0146912,
5570,-0.0177002,0.0148071,
5572,0.00427246,0.0147888,
5574,-0.00671387,0.0147827,
5576,0.0140381,0.0146667,
5578,-0.0012207,0.0146729,
5580,-0.012207,0.0147522,
5582,-0.0262451,0.014917,
5584,0.0115967,0.0149963,
5586,-0.0366211,0.0152893,
5588,0.000610352,0.0152161,
5590,-0.00854492,0.01521,
5592,0.00244141,0.0151733,
5594,0.0164795,0.0151978,
5596,0.0128174,0.0153259,
5598,0.0134277,0.0153503,
5600,-0.0164795,0.0152283,
5602,0.0628662,0.0158508,
5604,-0.00427246,0.0156982,
5606,-0.00915527,0.0152039,
5608,0.022583,0.0150635,
5610,-0.012207,0.0151794,
5612,-0.0262451,0.0153687,
5614,-0.00976563,0.0152649,
5616,-0.0317383,0.0151978,
5618,-0.0115967,0.0152466,
5620,-0.012207,0.0150085,
5622,-0.010376,0.0148804,
5624,-0.00793457,0.0148193,
5626,-0.00732422,0.0148132,
5628,-0.00183105,0.0146301,
5630,-0.0164795,0.0147095,
5632,0.0115967,0.0147827,
5634,0.00305176,0.0145447,
5636,0.0262451,0.0146301,
5638,-0.00610352,0.0146606,
5640,0.00732422,0.0146851,
5642,-0.00183105,0.0146057,
5644,0.0292969,0.0147766,
5646,0.020752,0.0148499,
5648,-0.0268555,0.0151184,
5650,-0.0146484,0.01521,
5652,0.0274658,0.0154785,
5654,0.0195313,0.0156616,
5656,0.022583,0.0158325,
5658,-0.00488281,0.0156189,
5660,-0.0158691,0.0154785,
5662,-0.00305176,0.015387,
5664,0.0012207,0.0151978,
5666,-0.00732422,0.0145264,
5668,-0.0262451,0.0145325,
5670,-0.0286865,0.0147888,
5672,-0.020752,0.0149353,
5674,-0.032959,0.0151733,
5676,0.012207,0.0150574,
5678,-0.0262451,0.0147766,
5680,0.0183105,0.0145264,
5682,0.0170898,0.0146667,
5684,-0.012207,0.014624,
5686,0.0378418,0.0146484,
5688,-0.00610352,0.0146851,
5690,0.0360107,0.0150391,
5692,0.0170898,0.0151611,
5694,-0.03479,0.0154907,
5696,0.00366211,0.0153503,
5698,0.00671387,0.0152344,
5700,-0.0115967,0.0152954,
5702,-0.00976563,0.0151001,
5704,-0.0335693,0.0153076,
5706,0.00183105,0.015094,
5708,-0.00671387,0.0150696,
5710,-0.0152588,0.0150269,
5712,0.0164795,0.015155,
5714,0.0158691,0.0153076,
5716,-0.00915527,0.015332,
5718,0.03479,0.0156006,
5720,-0.0128174,0.015686,
5722,0.0231934,0.0158813,
5724,0.0183105,0.0159729,
5726,-0.00671387,0.0159119,
5728,-0.0268555,0.0159607,
5730,0.0238037,0.0161804,
5732,0.00854492,0.0161987,
5734,-0.0231934,0.016333,
5736,-0.0128174,0.016333,
5738,0.0213623,0.0164612,
5740,-0.0128174,0.016394,
5742,-0.0183105,0.0164001,
5744,-0.022583,0.0164673,
5746,0.0140381,0.0165649,
5748,0.0012207,0.0162842,
5750,-0.0317383,0.0164856,
5752,-0.0177002,0.0164978,
5754,0.0128174,0.0162842,
5756,-0.0189209,0.0163635,
5758,-0.000610352,0.0160034,
5760,0.0134277,0.0160522,
5762,0.0238037,0.0159424,
5764,-0.0213623,0.0160095,
5766,0.0238037,0.0160767,
5768,0.00183105,0.0160217,
5770,0.0109863,0.0159546,
5772,-0.0164795,0.0160767,
5774,0.00244141,0.0160339,
5776,-0.00976563,0.0159912,
5778,-0.00793457,0.0160583,
5780,0.010376,0.01604,
5782,-0.00793457,0.0158569,
5784,0.00427246,0.0157837,
5786,0.0115967,0.0155334,
5788,0.00366211,0.015564,
5790,0.0134277,0.0156128,
5792,0.0195313,0.0157837,
5794,-0.010376,0.0157227,
5796,-0.0012207,0.0156067,
5798,0.0201416,0.0156738,
5800,0,0.015509,
5802,-0.022583,0.0151062,
5804,-0.0170898,0.0152344,
5806,0.0183105,0.0153259,
5808,-0.00305176,0.0151306,
5810,-0.00549316,0.0150635,
5812,-0.00427246,0.0148437,
5814,0.010376,0.0148499,
5816,-0.00854492,0.0146179,
5818,-0.00305176,0.0145325,
5820,0.00610352,0.0144714,
5822,0.00183105,0.014386,
5824,-0.00244141,0.0143311,
5826,0.00793457,0.0143372,
5828,-0.0115967,0.0144348,
5830,0.0201416,0.0144714,
5832,-0.00671387,0.0144226,
5834,0.00305176,0.0144226,
5836,0.0378418,0.0145386,
5838,0.0305176,0.0147827,
5840,-0.0305176,0.0150146,
5842,-0.0134277,0.0151306,
5844,0.0323486,0.0151611,
5846,-0.000610352,0.0149597,
5848,-0.00793457,0.0147705,
5850,-0.00549316,0.014679,
5852,-0.00488281,0.0144531,
5854,0,0.0142578,
5856,-0.0189209,0.0142212,
5858,0.00488281,0.0142212,
5860,0.00244141,0.0140869,
5862,0.00366211,0.014093,
5864,-0.0177002,0.0142578,
5866,0.00366211,0.0142212,
5868,-0.00244141,0.0139832,
5870,-0.0177002,0.0138733,
5872,-0.00549316,0.0137207,
5874,-0.0183105,0.0135742,
5876,-0.0109863,0.013562,
5878,0.0201416,0.013501,
5880,-0.0415039,0.0137329,
5882,-0.00854492,0.0136475,
5884,-0.00305176,0.0135559,
5886,-0.00732422,0.0132507,
5888,-0.012207,0.0133118,
5890,-0.00366211,0.0129883,
5892,0.000610352,0.0128235,
5894,-0.0140381,0.012616,
5896,-0.00427246,0.0126221,
5898,0.00549316,0.0126099,
5900,0.00671387,0.012561,
5902,-0.0238037,0.0127014,
5904,0.0164795,0.0125305,
5906,-0.00427246,0.0125549,
5908,-0.0134277,0.0126221,
5910,0.0152588,0.0126221,
5912,-0.00244141,0.0124817,
5914,-0.0152588,0.0124756,
5916,-0.00976563,0.0124817,
5918,-0.00732422,0.012207,
5920,0,0.0120789,
5922,0.00793457,0.0119263,
5924,-0.00549316,0.0117981,
5926,-0.00488281,0.0117798,
5928,0.00427246,0.011554,
5930,-0.00366211,0.0113525,
5932,0.0134277,0.0114014,
5934,-0.0219727,0.0113892,
5936,0.012207,0.0113831,
5938,-0.00793457,0.0112488,
5940,-0.00244141,0.011145,
5942,-0.00793457,0.0110413,
5944,0.00549316,0.0108704,
5946,-0.0140381,0.0108704,
5948,-0.0115967,0.0109741,
5950,-0.0183105,0.0108398,
5952,-0.012207,0.0107849,
5954,0.0201416,0.0108582,
5956,-0.0274658,0.0109436,
5958,-0.0531006,0.0114685,
5960,-0.0756836,0.0120911,
5962,0.0732422,0.0125854,
5964,-0.010376,0.0124756,
5966,-0.0439453,0.012677,
5968,-0.0445557,0.0131042,
5970,-0.00732422,0.0130676,
5972,0.0354004,0.0132568,
5974,-0.03479,0.0135803,
5976,-0.0134277,0.0136169,
5978,-0.0146484,0.0136841,
5980,-0.03479,0.0139282,
5982,0.00854492,0.0139343,
5984,-0.032959,0.0142212,
5986,-0.0134277,0.0142395,
5988,-0.00549316,0.0142578,
5990,-0.0183105,0.0143066,
5992,-0.0305176,0.0144165,
5994,-0.000610352,0.0143188,
5996,-0.0280762,0.0145874,
5998,-0.0195313,0.0145813,
6000,0.00732422,0.0146545,
6002,-0.0592041,0.0150208,
6004,-0.0354004,0.0152039,
6006,0.0354004,0.0153748,
6008,0.0238037,0.0155823,
6010,-0.055542,0.0160828,
6012,0.0317383,0.0163574,
6014,-0.0152588,0.0164063,
6016,-0.0262451,0.0165833,
6018,0.055542,0.0171082,
6020,-0.00610352,0.0171082,
6022,-0.0457764,0.0175476,
6024,-0.0360107,0.0178833,
6026,-0.0732422,0.0185364,
6028,-0.0439453,0.0188599,
6030,0.00976563,0.0187561,
6032,0.0152588,0.0188416,
6034,-0.109863,0.0199097,
6036,-0.0408936,0.0199402,
6038,0.0811768,0.0204468,
6040,0.0286865,0.0204285,
6042,-0.0390625,0.0206848,
6044,-0.00671387,0.0204285,
6046,0.0292969,0.0207153,
6048,-0.0231934,0.0208679,
6050,-0.0616455,0.0214294,
6052,-0.0415039,0.0217957,
6054,0.0598145,0.0223938,
6056,-0.00427246,0.0222473,
6058,-0.0946045,0.0231445,
6060,0.0439453,0.0235596,
6062,0.0140381,0.0236633,
6064,-0.0366211,0.0238525,
6066,0.0366211,0.0241821,
6068,-0.0195313,0.024353,
6070,-0.0177002,0.024353,
6072,0.00366211,0.0243347,
6074,-0.000610352,0.0241577,
6076,-0.0262451,0.0243103,
6078,0.0012207,0.0241211,
6080,0.0140381,0.0238464,
6082,0.0402832,0.0241638,
6084,0.0408936,0.0245422,
6086,-0.00549316,0.0245239,
6088,0.0256348,0.0246582,
6090,0.045166,0.0250732,
6092,-0.0201416,0.0252686,
6094,0.0335693,0.0254639,
6096,0.0213623,0.0256348,
6098,-0.00183105,0.0255981,
6100,0.00976563,0.0256287,
6102,0.00366211,0.0254272,
6104,-0.00244141,0.0252869,
6106,0.0256348,0.0255005,
6108,0.0128174,0.0254944,
6110,0.0268555,0.0256104,
6112,0.0128174,0.0257141,
6114,-0.0146484,0.025708,
6116,0.0170898,0.0257813,
6118,0.0390625,0.0260986,
6120,-0.0195313,0.0262939,
6122,0.012207,0.0263367,
6124,0.0012207,0.0262939,
6126,0.00244141,0.0262695,
6128,-0.00915527,0.0263184,
6130,-0.0366211,0.0266479,
6132,0.0134277,0.0266479,
6134,0.0012207,0.0264404,
6136,0.0561523,0.0268799,
6138,-0.0616455,0.027417,
6140,0.0231934,0.0276245,
6142,-0.0134277,0.0276794,
6144,0.0396729,0.0280212,
6146,0.0286865,0.0281677,
6148,0.00793457,0.0281311,
6150,-0.0109863,0.0280579,
6152,0.0164795,0.0281006,
6154,0.0219727,0.0281189,
6156,0.010376,0.027948,
6158,0.0170898,0.0275879,
6160,0.00183105,0.0268494,
6162,0.0158691,0.0262756,
6164,0,0.0261719,
6166,0.0170898,0.0259033,
6168,-0.00549316,0.0255127,
6170,0.0231934,0.0256714,
6172,0.0140381,0.0254578,
6174,0.0012207,0.0251221,
6176,0.00793457,0.0250671,
6178,0,0.0249207,
6180,-0.0012207,0.024585,
6182,0.0012207,0.0245117,
6184,-0.00305176,0.0242126,
6186,-0.00915527,0.0241699,
6188,0.00549316,0.0241699,
6190,-0.00488281,0.0240356,
6192,0.00427246,0.0237732,
6194,-0.00244141,0.0237915,
6196,0.00427246,0.0235535,
6198,-0.00488281,0.023407,
6200,-0.00732422,0.023407,
6202,0.0378418,0.0231934,
6204,-0.00732422,0.0229126,
6206,-0.0323486,0.0228821,
6208,0.0115967,0.02276,
6210,0.000610352,0.0222107,
6212,-0.00854492,0.0219788,
6214,-0.0158691,0.0219849,
6216,-0.00366211,0.021759,
6218,-0.03479,0.0215515,
6220,0.0286865,0.0217773,
6222,-0.00549316,0.0213745,
6224,-0.0128174,0.0211426,
6226,-0.000610352,0.0204163,
6228,0.00610352,0.0200378,
6230,0.0195313,0.0201355,
6232,-0.00854492,0.0200684,
6234,-0.000610352,0.0189758,
6236,0.00427246,0.0186096,
6238,-0.00610352,0.0178589,
6240,-0.0152588,0.0177246,
6242,-0.00366211,0.0173706,
6244,-0.00732422,0.0173767,
6246,-0.00305176,0.0171143,
6248,-0.0115967,0.0169983,
6250,-0.000610352,0.0163879,
6252,-0.00488281,0.0160217,
6254,-0.00183105,0.0154419,
6256,-0.00976563,0.0154968,
6258,-0.0012207,0.014563,
6260,0.00610352,0.0141846,
6262,-0.00671387,0.0141113,
6264,0.012207,0.0138672,
6266,-0.0177002,0.013678,
6268,-0.00244141,0.0135071,
6270,0.0012207,0.0133423,
6272,-0.0189209,0.0134949,
6274,0.0012207,0.013501,
6276,0,0.0132385,
6278,-0.000610352,0.0132324,
6280,0.00366211,0.0131287,
6282,-0.010376,0.0128296,
6284,0.00549316,0.0124756,
6286,0.00183105,0.012439,
6288,-0.0164795,0.0123474,
6290,-0.00976563,0.0119934,
6292,0.010376,0.0118958,
6294,-0.0170898,0.011731,
6296,0.000610352,0.0115234,
6298,-0.00305176,0.0115356,
6300,-0.022583,0.0116638,
6302,-0.0012207,0.0116394,
6304,-0.0109863,0.0117249,
6306,0.00305176,0.011499,
6308,-0.00366211,0.0114075,
6310,-0.0189209,0.0113281,
6312,-0.0128174,0.0113281,
6314,-0.012207,0.0113037,
6316,-0.0109863,0.0112427,
6318,0.0109863,0.0109619,
6320,-0.0170898,0.0109375,
6322,-0.0128174,0.0109436,
6324,0.000610352,0.0109375,
6326,-0.00305176,0.0109436,
6328,-0.0152588,0.0110046,
6330,0.022583,0.0108643,
6332,-0.0195313,0.0109253,
6334,-0.020752,0.0111206,
6336,-0.00427246,0.0106018,
6338,-0.010376,0.0100891,
6340,-0.00793457,0.00993652,
6342,-0.020752,0.0100098,
6344,-0.00854492,0.00969849,
6346,-0.0128174,0.00953979,
6348,-0.0128174,0.00958862,
6350,0.0177002,0.00965576,
6352,-0.022583,0.0097168,
6354,-0.00854492,0.00958252,
6356,-0.0134277,0.00961304,
6358,-0.012207,0.00956421,
6360,0.00427246,0.00958862,
6362,-0.0115967,0.0095459,
6364,-0.0286865,0.00983276,
6366,-0.0140381,0.00980225,
6368,-0.0134277,0.00988159,
6370,0.0268555,0.00991821,
6372,-0.0158691,0.00993652,
6374,-0.0164795,0.0100891,
6376,-0.00488281,0.0100586,
6378,-0.00549316,0.0101135,
6380,0.000610352,0.0101074,
6382,0.00732422,0.0101685,
6384,-0.0250244,0.0103882,
6386,-0.0109863,0.0104065,
6388,-0.00671387,0.0104187,
6390,-0.00915527,0.0104614,
6392,0.00671387,0.0104858,
6394,-0.0146484,0.0106079,
6396,-0.0268555,0.0108337,
6398,0.00488281,0.0108337,
6400,-0.00610352,0.0108215,
6402,-0.00366211,0.0104797,
6404,-0.0158691,0.0105652,
6406,0.00305176,0.0102722,
6408,-0.00427246,0.010199,
6410,-0.0146484,0.0103394,
6412,0.0109863,0.0103638,
6414,0.00488281,0.0102539,
6416,0.0183105,0.0104004,
6418,-0.0317383,0.0103699,
6420,-0.00488281,0.0101318,
6422,0.00366211,0.0101135,
6424,-0.00610352,0.0100464,
6426,-0.0219727,0.01026,
6428,-0.00366211,0.0102356,
6430,-0.00732422,0.0101135,
6432,-0.00183105,0.0100464,
6434,-0.00732422,0.0101135,
6436,-0.0238037,0.0103088,
6438,0.0115967,0.0103638,
6440,0.00915527,0.0103027,
6442,-0.0183105,0.0104492,
6444,-0.00793457,0.0104553,
6446,0.00854492,0.0105103,
6448,-0.00305176,0.0104248,
6450,-0.00244141,0.0104431,
6452,-0.00305176,0.0104248,
6454,0.00488281,0.0104553,
6456,0.00671387,0.0104248,
6458,-0.0372314,0.0107849,
6460,0.00854492,0.0108093,
6462,-0.0170898,0.0109131,
6464,0.00427246,0.0108337,
6466,-0.00610352,0.0107178,
6468,-0.00549316,0.0107483,
6470,-0.00854492,0.0108215,
6472,-0.0146484,0.0107788,
6474,0.0158691,0.0109253,
6476,-0.0128174,0.0110535,
6478,-0.00366211,0.011084,
6480,-0.0146484,0.0111938,
6482,-0.000610352,0.0110962,
6484,-0.0140381,0.0111816,
6486,-0.00732422,0.0112366,
6488,-0.000610352,0.0110779,
6490,-0.0231934,0.0112122,
6492,-0.00244141,0.0111328,
6494,-0.00976563,0.0110596,
6496,-0.0146484,0.0112,
6498,0.00427246,0.0112122,
6500,-0.0158691,0.011145,
6502,-0.03479,0.0114807,
6504,0.00793457,0.0114502,
6506,-0.000610352,0.0114258,
6508,-0.00732422,0.0114624,
6510,-0.0115967,0.0113892,
6512,-0.0115967,0.011377,
6514,-0.0109863,0.0113647,
6516,0.00854492,0.0113403,
6518,-0.00366211,0.0112671,
6520,-0.00915527,0.0111877,
6522,-0.00427246,0.0111023,
6524,-0.0109863,0.0112061,
6526,0.00305176,0.0112061,
6528,0.00366211,0.0110901,
6530,-0.0250244,0.0111145,
6532,-0.00793457,0.0109985,
6534,-0.00915527,0.0108826,
6536,-0.012207,0.0109619,
6538,0.000610352,0.0108643,
6540,-0.0311279,0.0110962,
6542,-0.00427246,0.0109314,
6544,-0.0012207,0.0108582,
6546,-0.0158691,0.0108887,
6548,-0.00610352,0.0108215,
6550,0.00305176,0.010675,
6552,0.00183105,0.0104675,
6554,-0.0140381,0.0105225,
6556,-0.00854492,0.0104736,
6558,-0.00610352,0.0104126,
6560,-0.000610352,0.010376,
6562,-0.0012207,0.0102722,
6564,-0.0158691,0.010144,
6566,0,0.0100037,
6568,-0.00427246,0.00991211,
6570,-0.00976563,0.00974121,
6572,-0.00793457,0.00966187,
6574,-0.00549316,0.009552,
6576,-0.00854492,0.00958862,
6578,-0.0183105,0.0097168,
6580,-0.00183105,0.009729,
6582,-0.00549316,0.00971069,
6584,-0.0115967,0.00957642,
6586,0.00183105,0.00948486,
6588,-0.0140381,0.00955811,
6590,-0.00671387,0.00953369,
6592,0.00488281,0.00951538,
6594,0.00244141,0.00939331,
6596,-0.00610352,0.00918579,
6598,-0.00976563,0.00923462,
6600,-0.0134277,0.00930786,
6602,0.000610352,0.00927734,
6604,-0.0115967,0.00923462,
6606,0.00549316,0.00925903,
6608,-0.0170898,0.00938721,
6610,-0.00549316,0.00929565,
6612,-0.00732422,0.00925903,
6614,-0.0115967,0.00932617,
6616,-0.0152588,0.00929565,
6618,0.00549316,0.0090332,
6620,-0.0109863,0.00909424,
6622,-0.0140381,0.009198,
6624,-0.012207,0.00925903,
6626,0.0012207,0.00905151,
6628,-0.00854492,0.00910034,
6630,-0.0231934,0.00925903,
6632,0.00305176,0.00927124,
6634,-0.00854492,0.00928345,
6636,-0.0115967,0.00916138,
6638,-0.012207,0.00916748,
6640,-0.0109863,0.00918579,
6642,-0.00610352,0.00906372,
6644,-0.000610352,0.00899048,
6646,-0.0158691,0.00906372,
6648,-0.00610352,0.00909424,
6650,-0.0115967,0.00918579,
6652,-0.010376,0.00925903,
6654,0.00671387,0.00927734,
6656,-0.010376,0.00931396,
6658,-0.010376,0.00904541,
6660,-0.0012207,0.00897217,
6662,0.00305176,0.00883179,
6664,-0.0140381,0.00892944,
6666,-0.00610352,0.00892944,
6668,-0.0152588,0.0090271,
6670,-0.00610352,0.00900269,
6672,-0.00732422,0.00892944,
6674,0.00305176,0.00880127,
6676,-0.0183105,0.0088562,
6678,-0.0231934,0.00905151,
6680,0.00610352,0.00896606,
6682,-0.0128174,0.00908813,
6684,-0.0219727,0.00916748,
6686,0.00732422,0.00916748,
6688,0.00610352,0.00922241,
6690,-0.0286865,0.00927734,
6692,-0.00732422,0.00932617,
6694,0.00549316,0.00928345,
6696,-0.00793457,0.00921631,
6698,-0.000610352,0.00917969,
6700,-0.00305176,0.00905151,
6702,-0.00976563,0.00880127,
6704,-0.0152588,0.00887451,
6706,-0.0128174,0.00899658,
6708,-0.00610352,0.00898438,
6710,-0.0109863,0.00897827,
6712,-0.0177002,0.00903931,
6714,-0.00976563,0.0090271,
6716,0.00488281,0.00899048,
6718,-0.00488281,0.00900269,
6720,-0.0115967,0.0090271,
6722,-0.00305176,0.00901489,
6724,-0.0213623,0.00911865,
6726,-0.000610352,0.00909424,
6728,-0.00488281,0.00910645,
6730,-0.0140381,0.00899658,
6732,-0.0128174,0.00904541,
6734,-0.0238037,0.00919189,
6736,-0.00244141,0.00909424,
6738,-0.0146484,0.00923462,
6740,-0.00915527,0.00901489,
6742,-0.00793457,0.00905151,
6744,-0.010376,0.00914307,
6746,-0.00793457,0.00906372,
6748,-0.00549316,0.00905762,
6750,-0.0109863,0.00913696,
6752,-0.0128174,0.00924683,
6754,0.0152588,0.00925903,
6756,-0.0256348,0.00942993,
6758,-0.00671387,0.00943604,
6760,-0.00183105,0.00944824,
6762,-0.00488281,0.00948486,
6764,-0.012207,0.00944824,
6766,0.00366211,0.00948486,
6768,-0.0152588,0.00959473,
6770,-0.00183105,0.00951538,
6772,-0.0109863,0.0095459,
6774,-0.0152588,0.00964355,
6776,-0.000610352,0.00956421,
6778,-0.020752,0.00958862,
6780,-0.00793457,0.00964966,
6782,-0.010376,0.00969849,
6784,0.00488281,0.00963135,
6786,-0.00732422,0.00968628,
6788,-0.0189209,0.00973511,
6790,-0.00610352,0.009729,
6792,-0.00549316,0.00973511,
6794,0.000610352,0.0097168,
6796,-0.010376,0.00975952,
6798,-0.00915527,0.00975342,
6800,-0.00671387,0.00968628,
6802,-0.00732422,0.00975342,
6804,-0.00244141,0.00966187,
6806,-0.0115967,0.0097229,
6808,-0.00915527,0.00964355,
6810,-0.00610352,0.00964966,
6812,-0.00793457,0.00965576,
6814,-0.0219727,0.00975952,
6816,-0.020752,0.00981445,
6818,-0.00244141,0.00978394,
6820,0.00549316,0.009729,
6822,-0.0134277,0.0097229,
6824,-0.0146484,0.00974731,
6826,-0.00305176,0.00976563,
6828,-0.00854492,0.00976563,
6830,0.00427246,0.00957642,
6832,0.00244141,0.00957031,
6834,-0.0262451,0.00974731,
6836,-0.00915527,0.0097229,
6838,0,0.00960083,
6840,-0.0164795,0.00965576,
6842,-0.0128174,0.0097229,
6844,-0.0128174,0.00984497,
6846,0.00183105,0.00970459,
6848,-0.0140381,0.00978394,
6850,-0.00671387,0.00973511,
6852,-0.00488281,0.00968018,
6854,-0.00732422,0.00968628,
6856,-0.00610352,0.00964355,
6858,-0.012207,0.00966187,
6860,-0.00305176,0.00968018,
6862,-0.00610352,0.00971069,
6864,-0.0128174,0.00969849,
6866,-0.00793457,0.0097168,
6868,-0.020752,0.00977173,
6870,-0.0158691,0.00986938,
6872,0.0244141,0.0100403,
6874,-0.0134277,0.010144,
6876,-0.0311279,0.0102722,
6878,0.00427246,0.010083,
6880,0.000610352,0.0100281,
6882,-0.00793457,0.00997925,
6884,-0.00854492,0.00984497,
6886,-0.00305176,0.00980225,
6888,-0.0195313,0.00993652,
6890,-0.00793457,0.009729,
6892,-0.0115967,0.00977173,
6894,-0.00854492,0.00980225,
6896,-0.00610352,0.00978394,
6898,-0.00488281,0.00982666,
6900,-0.0109863,0.00990601,
6902,-0.0109863,0.00991821,
6904,-0.00671387,0.00983276,
6906,0.00244141,0.009729,
6908,-0.0128174,0.00979614,
6910,-0.010376,0.00979004,
6912,-0.00976563,0.00971069,
6914,-0.00793457,0.00969238,
6916,0.00183105,0.00966187,
6918,-0.0189209,0.00980225,
6920,-0.0128174,0.00981445,
6922,-0.000610352,0.00979004,
6924,-0.0201416,0.00977783,
6926,-0.00610352,0.00983276,
6928,0.00549316,0.00983887,
6930,-0.0152588,0.00985107,
6932,-0.00976563,0.00982056,
6934,-0.00732422,0.00965576,
6936,-0.00732422,0.00970459,
6938,-0.00854492,0.00964355,
6940,-0.0109863,0.00966187,
6942,-0.0109863,0.00969238,
6944,-0.0183105,0.00977173,
6946,-0.012207,0.00981445,
6948,-0.0012207,0.00977173,
6950,-0.0152588,0.00981445,
6952,-0.00610352,0.00974731,
6954,-0.00610352,0.00965576,
6956,-0.00732422,0.00947266,
6958,-0.00366211,0.00944214,
6960,-0.00244141,0.00944824,
6962,-0.010376,0.00950317,
6964,0.00366211,0.00941772,
6966,0.00427246,0.00942383,
6968,-0.0244141,0.00951538,
6970,0.00549316,0.009552,
6972,-0.00671387,0.00950928,
6974,-0.00854492,0.00944214,
6976,-0.0012207,0.00944824,
6978,-0.0256348,0.00949707,
6980,0.00305176,0.00944824,
6982,-0.00549316,0.00939941,
6984,-0.0158691,0.00950928,
6986,-0.0109863,0.0095459,
6988,-0.0128174,0.00948486,
6990,-0.00732422,0.00949707,
6992,-0.00549316,0.00949707,
6994,-0.0164795,0.00965576,
6996,-0.0134277,0.00968628,
6998,-0.00366211,0.00963135,
7000,-0.00610352,0.00962524,
7002,-0.0152588,0.00970459,
7004,-0.0012207,0.00969238,
7006,-0.00610352,0.00963745,
7008,-0.00671387,0.00961304,
7010,-0.00732422,0.00962524,
7012,-0.010376,0.00964966,
7014,-0.0158691,0.00958862,
7016,-0.0115967,0.00949707,
7018,-0.0140381,0.00961304,
7020,-0.00305176,0.00958862,
7022,-0.000610352,0.00946045,
7024,-0.020752,0.00952148,
7026,-0.0109863,0.00960083,
7028,0.00366211,0.009552,
7030,-0.00427246,0.009552,
7032,-0.00610352,0.00958862,
7034,-0.00305176,0.00935669,
7036,-0.0109863,0.009375,
7038,-0.00915527,0.00946655,
7040,-0.0115967,0.00941772,
7042,0.00488281,0.00933838,
7044,-0.0189209,0.00939941,
7046,-0.00427246,0.00942383,
7048,-0.0146484,0.00942993,
7050,-0.00610352,0.00942383,
7052,-0.00671387,0.00944214,
7054,-0.00549316,0.00942383,
7056,-0.0146484,0.00950928,
7058,-0.00671387,0.00945435,
7060,-0.012207,0.0095459,
7062,-0.0152588,0.00963745,
7064,-0.00732422,0.00958252,
7066,-0.00854492,0.00958862,
7068,-0.012207,0.00950317,
7070,-0.00488281,0.00939331,
7072,-0.0164795,0.00931396,
7074,0.0012207,0.00919189,
7076,-0.0109863,0.00899048,
7078,-0.0012207,0.00895996,
7080,-0.00793457,0.0090332,
7082,-0.00671387,0.009021,
7084,-0.0201416,0.00913696,
7086,-0.00671387,0.00917358,
7088,-0.0164795,0.00914307,
7090,-0.010376,0.00916748,
7092,-0.00244141,0.00907593,
7094,-0.00427246,0.0090332,
7096,-0.00915527,0.00906372,
7098,0.00244141,0.00903931,
7100,-0.00976563,0.0090271,
7102,-0.0012207,0.00892944,
7104,-0.0140381,0.00900269,
7106,-0.00183105,0.00899658,
7108,-0.00549316,0.00892334,
7110,-0.0158691,0.00897827,
7112,-0.00610352,0.00894165,
7114,-0.0128174,0.00899048,
7116,-0.00549316,0.0090271,
7118,-0.00244141,0.0088623,
7120,-0.012207,0.0088562,
7122,-0.0140381,0.00899048,
7124,-0.00305176,0.00881958,
7126,-0.00732422,0.00883179,
7128,-0.0134277,0.00891113,
7130,-0.00915527,0.0088501,
7132,-0.000610352,0.00875854,
7134,-0.0177002,0.0088623,
7136,0.0012207,0.00880127,
7138,-0.00854492,0.00880127,
7140,-0.00671387,0.00875854,
7142,-0.010376,0.00875244,
7144,0.00183105,0.00858765,
7146,-0.020752,0.0086731,
7148,0.00366211,0.00869751,
7150,-0.012207,0.00866699,
7152,-0.0109863,0.00871582,
7154,-0.00427246,0.00869751,
7156,-0.00854492,0.00870972,
7158,-0.00305176,0.00870361,
7160,-0.0256348,0.00893555,
7162,-0.000610352,0.00883789,
7164,0.0115967,0.00891724,
7166,-0.010376,0.00897827,
7168,-0.0268555,0.00900269,
7170,0.00732422,0.009021,
7172,-0.00427246,0.00899658,
7174,-0.0238037,0.00914917,
7176,0.00549316,0.00919189,
7178,-0.00427246,0.00897827,
7180,-0.00976563,0.00904541,
7182,-0.00671387,0.00905762,
7184,-0.00671387,0.00896606,
7186,-0.0134277,0.00899048,
7188,-0.00366211,0.00889893,
7190,-0.0128174,0.00895386,
7192,-0.00305176,0.00892944,
7194,-0.0134277,0.00889893,
7196,-0.00549316,0.00881958,
7198,-0.0183105,0.00896606,
7200,-0.0146484,0.00905151,
7202,-0.00183105,0.00891724,
7204,-0.00854492,0.00899048,
7206,-0.0012207,0.00894165,
7208,-0.012207,0.00899658,
7210,0.0012207,0.00893555,
7212,-0.0146484,0.00897827,
7214,-0.0115967,0.00893555,
7216,0.0012207,0.00883179,
7218,-0.0115967,0.00880737,
7220,-0.0140381,0.00891724,
7222,-0.00244141,0.00893555,
7224,-0.0134277,0.0088623,
7226,-0.00976563,0.0088501,
7228,-0.00915527,0.00890503,
7230,-0.00732422,0.00893555,
7232,0.00183105,0.00889282,
7234,-0.0213623,0.00907593,
7236,-0.00244141,0.00899048,
7238,-0.00671387,0.00896606,
7240,-0.0158691,0.00900879,
7242,-0.00488281,0.00900879,
7244,-0.00305176,0.0088501,
7246,-0.00915527,0.00889893,
7248,-0.00732422,0.00882568,
7250,-0.00976563,0.0088623,
7252,-0.00854492,0.00888062,
7254,-0.012207,0.00894775,
7256,-0.00671387,0.00886841,
7258,-0.00427246,0.00884399,
7260,-0.00915527,0.00881348,
7262,-0.012207,0.00878296,
7264,-0.0109863,0.00881958,
7266,0,0.00873413,
7268,-0.00915527,0.00870361,
7270,-0.00732422,0.00872803,
7272,-0.00366211,0.00859985,
7274,-0.0140381,0.00872803,
7276,-0.00244141,0.00864258,
7278,-0.00305176,0.00866089,
7280,-0.00915527,0.0086731,
7282,-0.00854492,0.00869141,
7284,-0.0109863,0.00859985,
7286,-0.00610352,0.00859375,
7288,-0.00854492,0.0085144,
7290,-0.00854492,0.00849609,
7292,-0.010376,0.00857544,
7294,-0.00976563,0.00863037,
7296,-0.0152588,0.00869141,
7298,-0.00793457,0.00874634,
7300,-0.00549316,0.00870361,
7302,-0.0128174,0.00881958,
7304,-0.00915527,0.00877075,
7306,-0.00488281,0.00880127,
7308,-0.00854492,0.00883179,
7310,-0.00244141,0.00869751,
7312,-0.0140381,0.00877686,
7314,-0.00244141,0.0086731,
7316,-0.0109863,0.00872803,
7318,-0.00549316,0.00875854,
7320,-0.00915527,0.00872803,
7322,-0.00976563,0.0086853,
7324,-0.00976563,0.00875244,
7326,-0.0012207,0.00869141,
7328,-0.0164795,0.00872192,
7330,0.000610352,0.00863647,
7332,-0.00732422,0.00870361,
7334,-0.0115967,0.00864258,
7336,0.0012207,0.00864258,
7338,-0.00549316,0.00861206,
7340,-0.0115967,0.00866089,
7342,-0.0109863,0.00866699,
7344,-0.000610352,0.00865479,
7346,-0.010376,0.00855103,
7348,-0.0128174,0.00864258,
7350,0.0012207,0.00853271,
7352,-0.012207,0.00854492,
7354,-0.00854492,0.00858765,
7356,-0.00671387,0.00856934,
7358,-0.0140381,0.0086792,
7360,-0.00488281,0.00847168,
7362,-0.00854492,0.00855103,
7364,-0.00915527,0.00852661,
7366,-0.00915527,0.0085144,
7368,-0.00793457,0.0083252,
7370,-0.0109863,0.00836182,
7372,-0.012207,0.00844116,
7374,-0.00854492,0.00828857,
7376,-0.010376,0.0083374,
7378,-0.0109863,0.00840454,
7380,-0.00915527,0.00839844,
7382,-0.0012207,0.00834351,
7384,-0.012207,0.00839844,
7386,-0.0115967,0.00838013,
7388,-0.0140381,0.00848389,
7390,-0.010376,0.00845947,
7392,-0.00671387,0.00849609,
7394,-0.00305176,0.00839233,
7396,-0.0170898,0.0085083,
7398,-0.0158691,0.00848389,
7400,-0.00854492,0.00842285,
7402,-0.00915527,0.00849609,
7404,-0.00610352,0.00847168,
7406,-0.00488281,0.0085083,
7408,-0.0115967,0.0085022,
7410,-0.0219727,0.00870972,
7412,0.00366211,0.00859985,
7414,-0.0140381,0.00862427,
7416,0.00366211,0.00864868,
7418,-0.0305176,0.00883789,
7420,0.000610352,0.00870361,
7422,-0.00793457,0.00875854,
7424,-0.0189209,0.00881348,
7426,-0.00915527,0.00880737,
7428,-0.00427246,0.00875854,
7430,-0.0170898,0.0088562,
7432,-0.00183105,0.0088562,
7434,-0.010376,0.00874634,
7436,-0.00305176,0.00875244,
7438,-0.0177002,0.0088623,
7440,-0.0158691,0.0088623,
7442,-0.000610352,0.00881958,
7444,-0.0280762,0.00906982,
7446,-0.00610352,0.00903931,
7448,-0.0244141,0.00921021,
7450,-0.0012207,0.00912476,
7452,-0.012207,0.00916138,
7454,-0.00732422,0.00911255,
7456,-0.00366211,0.00908203,
7458,-0.00610352,0.00910034,
7460,-0.012207,0.00913086,
7462,-0.00732422,0.00908203,
7464,-0.012207,0.00909424,
7466,-0.00671387,0.00916138,
7468,-0.010376,0.00917358,
7470,-0.0158691,0.00925903,
7472,-0.00488281,0.00927124,
7474,-0.0140381,0.00927124,
7476,-0.00854492,0.00933228,
7478,-0.0128174,0.00942993,
7480,-0.00671387,0.00940552,
7482,-0.012207,0.00944214,
7484,-0.0128174,0.00946045,
7486,-0.0109863,0.00950928,
7488,-0.00793457,0.00950317,
7490,-0.0115967,0.00953369,
7492,-0.010376,0.00953369,
7494,-0.000610352,0.00944214,
7496,-0.0128174,0.00941772,
7498,-0.012207,0.00946045,
7500,-0.00244141,0.00942993,
7502,-0.00671387,0.0093689,
7504,-0.00915527,0.0093689,
7506,-0.00549316,0.009375,
7508,-0.012207,0.00941162,
7510,-0.00549316,0.00944214,
7512,-0.00366211,0.00933838,
7514,-0.0128174,0.00944214,
7516,-0.00366211,0.0093689,
7518,-0.0219727,0.00953369,
7520,0.000610352,0.00944824,
7522,0.00488281,0.00939941,
7524,-0.0189209,0.00949097,
7526,-0.00549316,0.00953369,
7528,-0.000610352,0.009375,
7530,-0.00183105,0.00938721,
7532,-0.00549316,0.0093689,
7534,-0.00793457,0.00933228,
7536,-0.0146484,0.00946655,
7538,-0.00549316,0.00946655,
7540,0.0012207,0.00936279,
7542,-0.0201416,0.00945435,
7544,-0.00671387,0.00951538,
7546,-0.00793457,0.00949097,
7548,-0.0146484,0.00950928,
7550,-0.00793457,0.00957642,
7552,-0.00915527,0.0095459,
7554,-0.012207,0.00958252,
7556,-0.00671387,0.00958252,
7558,-0.020752,0.00964966,
7560,-0.0109863,0.00971069,
7562,-0.000610352,0.00963135,
7564,-0.00427246,0.00958252,
7566,-0.0109863,0.00960083,
7568,-0.00854492,0.00960693,
7570,-0.00549316,0.009552,
7572,0.00488281,0.00947876,
7574,-0.00854492,0.00947876,
7576,0.0158691,0.00953369,
7578,-0.0250244,0.00967407,
7580,0.00366211,0.00961914,
7582,0.000610352,0.00961304,
7584,-0.00610352,0.009552,
7586,-0.00854492,0.00952148,
7588,-0.00488281,0.00942993,
7590,-0.0115967,0.00944214,
7592,-0.00976563,0.00947266,
7594,-0.00366211,0.00947876,
7596,-0.0189209,0.00949707,
7598,-0.00610352,0.00939941,
7600,-0.0146484,0.00946045,
7602,0,0.0093689,
7604,-0.0134277,0.00944214,
7606,-0.0140381,0.00953369,
7608,-0.00549316,0.00947266,
7610,-0.00610352,0.00931396,
7612,-0.00671387,0.00934448,
7614,-0.0109863,0.00931396,
7616,-0.010376,0.0093811,
7618,-0.00976563,0.00917358,
7620,-0.0109863,0.00927734,
7622,-0.020752,0.00940552,
7624,0.00305176,0.00924683,
7626,-0.0115967,0.00927124,
7628,-0.0134277,0.00936279,
7630,-0.00854492,0.00927734,
7632,-0.00427246,0.00930176,
7634,-0.0115967,0.00931396,
7636,-0.0152588,0.00943604,
7638,0.000610352,0.00926514,
7640,-0.010376,0.00921021,
7642,-0.00366211,0.00924072,
7644,-0.0268555,0.00922852,
7646,0.00732422,0.00924072,
7648,-0.0134277,0.00913086,
7650,-0.00915527,0.00921021,
7652,-0.00915527,0.00917969,
7654,-0.00488281,0.00915527,
7656,-0.00488281,0.00916748,
7658,-0.0152588,0.00925903,
7660,-0.00366211,0.00917358,
7662,-0.00671387,0.00916748,
7664,-0.00793457,0.00912476,
7666,-0.00793457,0.00913696,
7668,-0.000610352,0.00903931,
7670,-0.0164795,0.00904541,
7672,-0.00427246,0.00903931,
7674,-0.0177002,0.00907593,
7676,-0.00366211,0.0090271,
7678,-0.00732422,0.00897217,
7680,-0.00427246,0.00894775,
7682,0,0.00882568,
7684,-0.0109863,0.00880737,
7686,-0.0115967,0.00881348,
7688,-0.00671387,0.00880127,
7690,-0.00793457,0.00876465,
7692,-0.00915527,0.00875244,
7694,-0.00671387,0.00881348,
7696,-0.0140381,0.00882568,
7698,-0.00610352,0.00876465,
7700,-0.0109863,0.0088501,
7702,-0.00244141,0.00880737,
7704,0.00244141,0.00874023,
7706,-0.00793457,0.00876465,
7708,-0.00732422,0.00871582,
7710,-0.0170898,0.00883179,
7712,-0.00793457,0.00887451,
7714,-0.0183105,0.00892944,
7716,-0.00427246,0.00893555,
7718,-0.0201416,0.00891724,
7720,-0.0164795,0.00907593,
7722,-0.0177002,0.0092041,
7724,-0.0128174,0.00914307,
7726,-0.00183105,0.00910645,
7728,-0.0140381,0.00924072,
7730,-0.00427246,0.00926514,
7732,-0.0146484,0.00935669,
7734,-0.00732422,0.00935059,
7736,-0.00488281,0.00925293,
7738,-0.00976563,0.00929565,
7740,-0.00915527,0.009375,
7742,-0.00793457,0.00925293,
7744,-0.00610352,0.00924683,
7746,-0.0158691,0.00932617,
7748,-0.00427246,0.00922241,
7750,-0.012207,0.00926514,
7752,-0.00244141,0.009198,
7754,-0.012207,0.009198,
7756,-0.00549316,0.00918579,
7758,-0.00854492,0.00906372,
7760,-0.010376,0.00905762,
7762,-0.00976563,0.00914917,
7764,-0.00976563,0.0092041,
7766,-0.0128174,0.00922241,
7768,0.00549316,0.00919189,
7770,-0.012207,0.00925903,
7772,-0.0115967,0.00932617,
7774,-0.00793457,0.00932007,
7776,0.00488281,0.00921021,
7778,-0.0213623,0.00917358,
7780,-0.00732422,0.00921021,
7782,-0.0213623,0.00941772,
7784,0.00183105,0.009375,
7786,-0.0115967,0.00940552,
7788,-0.0134277,0.00949097,
7790,-0.0128174,0.00950317,
7792,-0.00549316,0.00946045,
7794,-0.00366211,0.00946045,
7796,-0.010376,0.009375,
7798,-0.00854492,0.00939941,
7800,-0.00793457,0.00933228,
7802,-0.0109863,0.00944214,
7804,-0.00732422,0.0093811,
7806,-0.00732422,0.00931396,
7808,-0.0152588,0.00941162,
7810,-0.00244141,0.009375,
7812,-0.00671387,0.009375,
7814,-0.00793457,0.00934448,
7816,-0.00976563,0.00933838,
7818,-0.0109863,0.00935059,
7820,-0.00366211,0.00927734,
7822,-0.010376,0.00917358,
7824,-0.0158691,0.00930176,
7826,-0.00671387,0.00925293,
7828,-0.0177002,0.00929565,
7830,-0.00488281,0.00925903,
7832,-0.012207,0.00933838,
7834,-0.0115967,0.00933838,
7836,-0.00976563,0.00928345,
7838,-0.00366211,0.00931396,
7840,-0.00976563,0.00930786,
7842,-0.00915527,0.00936279,
7844,-0.00976563,0.00919189,
7846,-0.012207,0.00924072,
7848,-0.00549316,0.00916138,
7850,-0.00854492,0.00915527,
7852,-0.00854492,0.00914917,
7854,-0.0134277,0.00923462,
7856,-0.0012207,0.009198,
7858,-0.0146484,0.00919189,
7860,-0.0152588,0.00930786,
7862,-0.00610352,0.00930176,
7864,-0.00549316,0.00927734,
7866,0.0012207,0.00921021,
7868,-0.0164795,0.0093689,
7870,-0.00732422,0.00927734,
7872,-0.000610352,0.00924072,
7874,-0.0164795,0.00922852,
7876,0.00244141,0.00921631,
7878,-0.0158691,0.00930176,
7880,-0.00183105,0.00927734,
7882,-0.000610352,0.00928345,
7884,-0.0195313,0.0093689,
7886,-0.00244141,0.00927734,
7888,-0.00366211,0.00924683,
7890,-0.00305176,0.009198,
7892,-0.00854492,0.00919189,
7894,-0.010376,0.00922852,
7896,-0.010376,0.00919189,
7898,-0.00183105,0.00914917,
7900,-0.00488281,0.00908813,
7902,-0.0146484,0.00921021,
7904,-0.00854492,0.00927124,
7906,-0.00183105,0.00921021,
7908,-0.00976563,0.00923462,
7910,0.00488281,0.00911255,
7912,-0.0158691,0.00919189,
7914,-0.00427246,0.00905151,
7916,-0.0170898,0.00917969,
7918,0.00671387,0.00904541,
7920,-0.0238037,0.00911865,
7922,-0.012207,0.00906372,
7924,-0.0213623,0.00914917,
7926,-0.010376,0.00923462,
7928,-0.0012207,0.00910645,
7930,-0.00732422,0.00913696,
7932,-0.00610352,0.00905151,
7934,-0.00793457,0.00905762,
7936,-0.00854492,0.00909424,
7938,-0.00244141,0.009021,
7940,0.00305176,0.00895996,
7942,-0.0140381,0.009021,
7944,-0.00732422,0.0090332,
7946,-0.0146484,0.009021,
7948,-0.00854492,0.00906372,
7950,-0.00915527,0.0090332,
7952,-0.0177002,0.00918579,
7954,-0.00732422,0.00913696,
7956,-0.00793457,0.00916138,
7958,-0.00976563,0.00917358,
7960,-0.0158691,0.00922852,
7962,-0.0012207,0.00914307,
7964,-0.0146484,0.00919189,
7966,-0.0012207,0.00907593,
7968,-0.0128174,0.00914917,
7970,-0.00549316,0.00908203,
7972,-0.00610352,0.0090271,
7974,-0.00732422,0.009021,
7976,-0.0128174,0.00910034,
7978,-0.00366211,0.00892334,
7980,0,0.0088501,
7982,-0.0152588,0.00878906,
7984,-0.0109863,0.00888062,
7986,-0.00305176,0.00879517,
7988,-0.00610352,0.00872192,
7990,-0.00976563,0.00869141,
7992,-0.00427246,0.0086792,
7994,-0.010376,0.00874634,
7996,-0.012207,0.00876465,
7998,-0.00854492,0.00876465,
8000,-0.0012207,0.00869751,
8002,-0.012207,0.00870972,
8004,0.00305176,0.00866699,
8006,-0.0183105,0.00877686,
8008,-0.00976563,0.00872192,
8010,-0.00488281,0.00874634,
8012,-0.0109863,0.00878906,
8014,-0.010376,0.00881348,
8016,-0.00610352,0.00877686,
8018,-0.0262451,0.00892944,
8020,0.00915527,0.00898438,
8022,-0.00854492,0.00896606,
8024,-0.0128174,0.00893555,
8026,-0.00610352,0.00892944,
8028,-0.00305176,0.00878296,
8030,0.00366211,0.00877075,
8032,-0.00976563,0.00874634,
8034,-0.0109863,0.00874023,
8036,-0.012207,0.00876465,
8038,-0.00366211,0.00876465,
8040,-0.0115967,0.00878296,
8042,-0.0109863,0.00880127,
8044,-0.0146484,0.0088501,
8046,-0.0012207,0.00874023,
8048,-0.010376,0.00878906,
8050,-0.00793457,0.00878296,
8052,-0.0244141,0.00894165,
8054,-0.000610352,0.00881348,
8056,-0.00549316,0.0088562,
8058,-0.020752,0.00891724,
8060,-0.00427246,0.00880737,
8062,-0.0134277,0.00888062,
8064,-0.00854492,0.00891113,
8066,-0.00915527,0.00899048,
8068,-0.0177002,0.00900269,
8070,-0.0164795,0.00909424,
8072,-0.00915527,0.00917969,
8074,-0.00549316,0.00906982,
8076,-0.0152588,0.009198,
8078,-0.00976563,0.00913696,
8080,-0.00427246,0.00916138,
8082,-0.00976563,0.00925293,
8084,-0.00488281,0.00910645,
8086,-0.00549316,0.00913696,
8088,0.000610352,0.00910645,
8090,-0.0128174,0.0092041,
8092,-0.0134277,0.00925293,
8094,-0.00732422,0.00922241,
8096,-0.0152588,0.00927124,
8098,-0.00671387,0.00932007,
8100,-0.0158691,0.00942993,
8102,-0.00488281,0.00933228,
8104,-0.00244141,0.00927124,
8106,-0.00549316,0.00930786,
8108,-0.0177002,0.00938721,
8110,-0.0170898,0.00950928,
8112,-0.0115967,0.00946655,
8114,0.00183105,0.00944214,
8116,-0.012207,0.00939331,
8118,-0.0170898,0.00949707,
8120,-0.0115967,0.009375,
8122,-0.0158691,0.00941162,
8124,-0.00671387,0.00926514,
8126,-0.00976563,0.00925903,
8128,-0.00183105,0.00926514,
8130,-0.0134277,0.00932617,
8132,-0.00671387,0.00933228,
8134,-0.0164795,0.00941772,
8136,-0.00549316,0.00938721,
8138,-0.00732422,0.00943604,
8140,-0.00732422,0.00947876,
8142,-0.0134277,0.00947266,
8144,-0.00488281,0.00944824,
8146,-0.0128174,0.00942993,
8148,-0.0195313,0.00953979,
8150,-0.00793457,0.00952759,
8152,-0.0158691,0.00950928,
8154,-0.00244141,0.00946045,
8156,-0.0140381,0.00952148,
8158,-0.0195313,0.00961914,
8160,-0.00305176,0.00949097,
8162,-0.0146484,0.00962524,
8164,-0.00305176,0.00950928,
8166,0.00244141,0.00952148,
8168,-0.0140381,0.00953369,
8170,-0.0115967,0.00959473,
8172,0,0.00953369,
8174,-0.0140381,0.00960083,
8176,0.00305176,0.00950317,
8178,-0.012207,0.00958862,
8180,-0.0140381,0.009729,
8182,-0.00488281,0.00962524,
8184,-0.00610352,0.00957642,
8186,-0.0115967,0.00966187,
8188,-0.000610352,0.00960693,
8190,-0.0164795,0.00967407,
8192,-0.00610352,0.00969238,
8194,0.0012207,0.00960083,
8196,-0.0183105,0.00966187,
8198,-0.0115967,0.00969238,
8200,-0.010376,0.00978394,
8202,-0.00366211,0.00969849,
8204,-0.0134277,0.00980225,
8206,-0.00854492,0.00970459,
8208,-0.0128174,0.00973511,
8210,-0.00732422,0.00975952,
8212,-0.00488281,0.00969849,
8214,-0.00305176,0.00962524,
8216,-0.0170898,0.00973511,
8218,-0.0128174,0.00960083,
8220,0.00671387,0.00957642,
8222,-0.010376,0.00959473,
8224,-0.0158691,0.00962524,
8226,-0.00366211,0.00960083,
8228,-0.00671387,0.00963745,
8230,-0.00671387,0.00966797,
8232,0.00183105,0.00958862,
8234,-0.00366211,0.00951538,
8236,0,0.00939331,
8238,-0.012207,0.00947876,
8240,-0.00183105,0.0093811,
8242,-0.00244141,0.00929565,
8244,-0.00793457,0.00922852,
8246,-0.00854492,0.00930176,
8248,-0.00488281,0.00924683,
8250,-0.00366211,0.0092041,
8252,-0.0152588,0.00911255,
8254,-0.00671387,0.00917358,
8256,-0.00549316,0.00917358,
8258,-0.012207,0.00908813,
8260,-0.00732422,0.00911865,
8262,-0.00610352,0.00904541,
8264,-0.0158691,0.00911865,
8266,-0.00427246,0.00906982,
8268,0.00305176,0.00892334,
8270,-0.0170898,0.00892944,
8272,-0.00671387,0.00890503,
8274,-0.00854492,0.00893555,
8276,0.00244141,0.00880737,
8278,-0.012207,0.00883179,
8280,-0.0109863,0.00889893,
8282,-0.00976563,0.00889893,
8284,-0.012207,0.00897217,
8286,-0.0134277,0.00905151,
8288,-0.012207,0.00916748,
8290,-0.0115967,0.00915527,
8292,0.00549316,0.00907593,
8294,-0.00366211,0.00903931,
8296,-0.0213623,0.00910034,
8298,-0.00549316,0.00908813,
8300,-0.00183105,0.00894775,
8302,-0.00610352,0.00895996,
8304,-0.00305176,0.00896606,
8306,-0.00915527,0.00900269,
8308,-0.00732422,0.00889893,
8310,-0.00305176,0.00875854,
8312,-0.00915527,0.00873413,
8314,-0.0134277,0.0088501,
8316,-0.00305176,0.00875854,
8318,-0.00671387,0.00865479,
8320,-0.00427246,0.00858154,
8322,-0.0115967,0.00853882,
8324,-0.0128174,0.00859985,
8326,-0.00732422,0.00857544,
8328,0.0012207,0.00856934,
8330,-0.0134277,0.00856934,
8332,-0.00976563,0.00859985,
8334,-0.00427246,0.00847778,
8336,-0.00915527,0.0085144,
8338,-0.0109863,0.00855103,
8340,0,0.00847778,
8342,-0.0164795,0.0085083,
8344,-0.00915527,0.00855103,
8346,-0.0012207,0.00843506,
8348,-0.0140381,0.00838013,
8350,-0.00244141,0.0083252,
8352,-0.010376,0.00827026,
8354,-0.00549316,0.00830078,
8356,-0.00732422,0.00823364,
8358,-0.00854492,0.00812378,
8360,-0.00183105,0.00811157,
8362,-0.0177002,0.00814209,
8364,-0.00610352,0.00817261,
8366,-0.00549316,0.00820313,
8368,-0.00915527,0.0081543,
8370,-0.00610352,0.00809937,
8372,-0.0152588,0.00825195,
8374,-0.00793457,0.00819092,
8376,0.00549316,0.00821533,
8378,-0.0134277,0.00822754,
8380,-0.00671387,0.0081543,
8382,-0.00671387,0.00817261,
8384,-0.012207,0.00823364,
8386,-0.020752,0.0083252,
8388,0.022583,0.00854492,
8390,-0.0146484,0.00852661,
8392,-0.0140381,0.00860596,
8394,0.00549316,0.00864868,
8396,-0.0158691,0.00862427,
