Stephany-B-Musc-ABC-L01
Gráfico creado el:2026-06-05 12:59:13.364
Registro en:2026-06-05 13:00:19.790
2 mseg/muestras
2 canales
EMG
mV
EMG Integrado
mV-sec
milliSec,CH1,CH40,
,273492 samples,273492 samples,
0,-0.0158691,0.000158691,
2,-0.00549316,0.000213623,
4,-0.00793457,0.000292969,
6,0.00488281,0.000341797,
8,-0.012207,0.000463867,
10,-0.00732422,0.000537109,
12,-0.00427246,0.000579834,
14,-0.00183105,0.000598145,
16,-0.00305176,0.000628662,
18,-0.00915527,0.000720215,
20,-0.00183105,0.000738525,
22,-0.0164795,0.00090332,
24,0.00183105,0.000921631,
26,-0.00183105,0.000939941,
28,-0.00244141,0.000964355,
30,-0.00976563,0.00106201,
32,-0.00305176,0.00109253,
34,0.0012207,0.00110474,
36,-0.00549316,0.00115967,
38,-0.00488281,0.0012085,
40,-0.00976563,0.00130615,
42,-0.0012207,0.00131836,
44,0.00183105,0.00133667,
46,-0.00610352,0.00139771,
48,-0.0012207,0.00140991,
50,-0.00427246,0.00145264,
52,-0.00427246,0.00149536,
54,-0.00549316,0.00155029,
56,-0.00366211,0.00158691,
58,-0.00183105,0.00160522,
60,-0.00732422,0.00167847,
62,-0.00610352,0.0017395,
64,0.0012207,0.00175171,
66,-0.012207,0.00187378,
68,-0.0012207,0.00188599,
70,0.00427246,0.00192871,
72,-0.00366211,0.00196533,
74,0.00183105,0.00198364,
76,-0.010376,0.0020874,
78,-0.0012207,0.00209961,
80,0.00854492,0.00218506,
82,0.00183105,0.00220337,
84,-0.00305176,0.00223389,
86,-0.00183105,0.0022522,
88,0.020752,0.00245972,
90,-0.0134277,0.00259399,
92,-0.0164795,0.00275879,
94,0.00671387,0.00282593,
96,0.00305176,0.00285645,
98,-0.010376,0.00296021,
100,-0.0177002,0.00313721,
102,0,0.00313721,
104,-0.00732422,0.00321045,
106,-0.00549316,0.00326538,
108,0.00305176,0.0032959,
110,-0.00976563,0.00339355,
112,-0.00549316,0.00344849,
114,-0.00427246,0.00349121,
116,-0.00488281,0.00354004,
118,-0.00427246,0.00358276,
120,0.000610352,0.00358887,
122,-0.00976563,0.00368652,
124,-0.010376,0.00379028,
126,-0.00183105,0.00380859,
128,-0.00183105,0.0038269,
130,0.0012207,0.00383911,
132,-0.00427246,0.00388184,
134,-0.00610352,0.00394287,
136,-0.00488281,0.0039917,
138,-0.00366211,0.00402832,
140,-0.0012207,0.00404053,
142,-0.00610352,0.00410156,
144,-0.00427246,0.00414429,
146,-0.00366211,0.00418091,
148,-0.000610352,0.00418701,
150,-0.00976563,0.00428467,
152,0.000610352,0.00429077,
154,0.0012207,0.00430298,
156,-0.00732422,0.00437622,
158,-0.00183105,0.00439453,
160,-0.00549316,0.00444946,
162,-0.00915527,0.00454102,
164,-0.00549316,0.00459595,
166,-0.0115967,0.00471191,
168,-0.00488281,0.00476074,
170,-0.00183105,0.00477905,
172,-0.00915527,0.00487061,
174,-0.00732422,0.00494385,
176,-0.00366211,0.00498047,
178,0,0.00498047,
180,-0.00244141,0.00500488,
182,-0.00488281,0.00505371,
184,0.00366211,0.00509033,
186,-0.0170898,0.00526123,
188,0.00305176,0.00529175,
190,-0.00488281,0.00534058,
192,-0.00244141,0.00536499,
194,-0.00732422,0.00543823,
196,0,0.00543823,
198,-0.00488281,0.00548706,
200,0.012207,0.00545044,
202,0.00305176,0.00542603,
204,-0.00427246,0.0053894,
206,0,0.00534058,
208,0.00305176,0.00524902,
210,-0.0012207,0.00518799,
212,0.00854492,0.00523071,
214,-0.0109863,0.00532227,
216,-0.00732422,0.00536499,
218,-0.00793457,0.00535278,
220,-0.00671387,0.00540161,
222,-0.00427246,0.00527954,
224,-0.012207,0.0053833,
226,-0.00976563,0.00546265,
228,-0.00305176,0.00546875,
230,-0.00244141,0.00539551,
232,0,0.00536499,
234,-0.00305176,0.0053833,
236,0.0134277,0.00546265,
238,-0.0109863,0.00552368,
240,-0.00488281,0.00547485,
242,-0.00549316,0.00551758,
244,0.0115967,0.00561523,
246,-0.0012207,0.00556641,
248,-0.0140381,0.00569458,
250,-0.0158691,0.00581055,
252,0.00488281,0.00581665,
254,0.0109863,0.00587158,
256,-0.00671387,0.0059021,
258,-0.00183105,0.0059021,
260,0.0140381,0.00596924,
262,-0.0262451,0.00617065,
264,-0.0115967,0.00627441,
266,0.00427246,0.00619507,
268,-0.010376,0.00628662,
270,-0.0164795,0.00640869,
272,-0.010376,0.00647583,
274,-0.00915527,0.00654907,
276,-0.00671387,0.00651245,
278,-0.00976563,0.0065979,
280,0,0.00651245,
282,-0.00183105,0.00651245,
284,-0.0115967,0.0065979,
286,-0.0115967,0.00669556,
288,0.00244141,0.00651245,
290,-0.00854492,0.00646362,
292,-0.00854492,0.00638428,
294,-0.00854492,0.00640259,
296,-0.00305176,0.00640259,
298,-0.000610352,0.00630493,
300,-0.0012207,0.00614014,
302,0.00366211,0.00617676,
304,-0.00305176,0.00613403,
306,-0.00366211,0.00611572,
308,0.000610352,0.00609131,
310,-0.00976563,0.00609131,
312,0.00305176,0.00606689,
314,0.00183105,0.00604248,
316,-0.00183105,0.00601196,
318,-0.00854492,0.00605469,
320,-0.00427246,0.00609131,
322,0.00305176,0.00602417,
324,-0.00427246,0.00596313,
326,-0.00183105,0.00596313,
328,0,0.00594482,
330,-0.0115967,0.00604858,
332,0.00183105,0.00602417,
334,-0.0115967,0.0060791,
336,-0.00366211,0.00606689,
338,0.00610352,0.00609131,
340,0.00549316,0.00613403,
342,-0.0250244,0.00632324,
344,-0.00732422,0.00635376,
346,-0.000610352,0.00632324,
348,-0.00793457,0.00639648,
350,-0.0109863,0.00640869,
352,-0.00976563,0.00650024,
354,-0.010376,0.0065918,
356,-0.00854492,0.006604,
358,-0.00610352,0.00664673,
360,-0.00732422,0.00666504,
362,-0.00671387,0.00664063,
364,-0.00915527,0.00667725,
366,-0.00488281,0.00661011,
368,0.000610352,0.00656738,
370,-0.00244141,0.00657349,
372,-0.0012207,0.00649414,
374,0.00915527,0.00651245,
376,-0.0128174,0.006604,
378,0,0.006604,
380,0.00366211,0.00661621,
382,-0.0012207,0.00657959,
384,-0.00671387,0.00661011,
386,-0.00366211,0.00647583,
388,-0.00244141,0.00646973,
390,-0.0195313,0.00661621,
392,-0.0177002,0.0067688,
394,0.012207,0.00681763,
396,0.00488281,0.00686646,
398,-0.0183105,0.00700073,
400,-0.010376,0.00698242,
402,-0.00244141,0.00697632,
404,0.00305176,0.00696411,
406,-0.00488281,0.00701294,
408,-0.00305176,0.00701294,
410,-0.00671387,0.00706787,
412,-0.00366211,0.00701904,
414,0.00549316,0.00696411,
416,-0.0109863,0.00700073,
418,-0.0128174,0.00704956,
420,-0.00427246,0.00702515,
422,0.00183105,0.00700073,
424,-0.010376,0.00698242,
426,-0.00671387,0.0069519,
428,-0.00915527,0.00701294,
430,-0.0012207,0.00700073,
432,-0.00671387,0.00706787,
434,-0.000610352,0.00704346,
436,-0.00366211,0.0069458,
438,0.00244141,0.00686035,
440,0,0.00681152,
442,0.000610352,0.0067627,
444,0.000610352,0.00665283,
446,-0.00183105,0.00665894,
448,0.000610352,0.00652466,
450,-0.00244141,0.00639038,
452,-0.00183105,0.00635986,
454,-0.00549316,0.00630493,
456,0.00244141,0.00626221,
458,-0.00427246,0.00628662,
460,-0.00610352,0.00620728,
462,-0.0012207,0.00595703,
464,-0.00305176,0.00587158,
466,-0.00793457,0.0059082,
468,-0.00183105,0.00582275,
470,-0.000610352,0.00566406,
472,-0.00610352,0.00562134,
474,-0.00427246,0.00557251,
476,-0.00366211,0.00554199,
478,-0.00244141,0.00546875,
480,0.00305176,0.00549927,
482,-0.00366211,0.00551758,
484,-0.00244141,0.00542603,
486,-0.00671387,0.0053772,
488,-0.00671387,0.00541992,
490,0.0012207,0.00534668,
492,-0.00549316,0.00531616,
494,-0.00732422,0.00530396,
496,-0.00427246,0.00531616,
498,0.000610352,0.00531616,
500,0.0012207,0.00531616,
502,0.00671387,0.00534668,
504,-0.00671387,0.0053833,
506,-0.00854492,0.00543213,
508,0.00427246,0.00546875,
510,0,0.00537109,
512,-0.00366211,0.0053772,
514,-0.00610352,0.00541992,
516,-0.00976563,0.00549927,
518,0.012207,0.00553589,
520,-0.00610352,0.0055542,
522,-0.0115967,0.00563965,
524,0.0250244,0.00584717,
526,0.00549316,0.00588379,
528,-0.00976563,0.00598145,
530,0.00244141,0.00588989,
532,-0.00305176,0.0059021,
534,-0.00488281,0.00583496,
536,-0.00305176,0.00582886,
538,0.00305176,0.00579834,
540,-0.0183105,0.00592651,
542,-0.0012207,0.00568848,
544,0.000610352,0.00562134,
546,-0.0128174,0.00574341,
548,-0.00183105,0.00568237,
550,-0.00244141,0.00559692,
552,-0.00366211,0.00553589,
554,-0.0109863,0.00554199,
556,-0.0146484,0.00560303,
558,0.00549316,0.00559692,
560,-0.00793457,0.00560303,
562,-0.00610352,0.00559692,
564,-0.000610352,0.00551147,
566,-0.00305176,0.00549316,
568,0,0.00548706,
570,0.00244141,0.00548706,
572,-0.000610352,0.00548096,
574,0.00671387,0.00545654,
576,-0.00671387,0.00539551,
578,-0.00976563,0.00549316,
580,0.00244141,0.00548096,
582,-0.0012207,0.00548096,
584,-0.00610352,0.00547485,
586,-0.00671387,0.00550537,
588,-0.00244141,0.00550537,
590,-0.00183105,0.00532837,
592,-0.00427246,0.00519409,
594,-0.00305176,0.00510254,
596,-0.00549316,0.00510864,
598,0.00427246,0.00496826,
600,-0.00427246,0.00490723,
602,-0.00488281,0.00493164,
604,-0.00793457,0.00498047,
606,0.00488281,0.00498047,
608,-0.010376,0.00505371,
610,0.00305176,0.00501709,
612,-0.0012207,0.00499268,
614,-0.00854492,0.00502319,
616,-0.0170898,0.00508423,
618,-0.00366211,0.00499268,
620,-0.00549316,0.00500488,
622,0.00244141,0.00501099,
624,-0.00915527,0.00499878,
626,-0.0128174,0.00505981,
628,0.00183105,0.00498657,
630,0.00671387,0.0050415,
632,-0.00244141,0.00499878,
634,-0.00549316,0.00504761,
636,-0.00488281,0.00505981,
638,-0.00549316,0.00509033,
640,-0.0164795,0.00525513,
642,0.010376,0.00535278,
644,0.000610352,0.00535278,
646,-0.0201416,0.00553589,
648,0.0012207,0.00554199,
650,0.00183105,0.00553589,
652,0.00305176,0.0055481,
654,-0.00793457,0.00557251,
656,-0.00488281,0.00559692,
658,0.00366211,0.00559082,
660,-0.00976563,0.00562744,
662,-0.012207,0.0057373,
664,0.00427246,0.00574951,
666,-0.000610352,0.00567627,
668,-0.0134277,0.00579224,
670,-0.0152588,0.00593872,
672,-0.00915527,0.00596924,
674,-0.0115967,0.00604248,
676,-0.0189209,0.00619507,
678,-0.0201416,0.00637207,
680,-0.00244141,0.00636597,
682,-0.0152588,0.00648193,
684,-0.00976563,0.00655518,
686,-0.00610352,0.00654907,
688,-0.00427246,0.00652466,
690,0.00366211,0.00654907,
692,-0.00183105,0.00651245,
694,-0.00366211,0.00647583,
696,0.00244141,0.00645752,
698,-0.00549316,0.00650635,
700,-0.0115967,0.00661011,
702,0.00244141,0.00656738,
704,-0.00244141,0.00652466,
706,0.0012207,0.00645142,
708,0.00671387,0.00647583,
710,-0.00366211,0.00651245,
712,-0.00854492,0.00656128,
714,-0.0128174,0.00662842,
716,0.00488281,0.00657959,
718,-0.00915527,0.00654907,
720,0.00976563,0.00658569,
722,-0.0152588,0.00662231,
724,-0.0256348,0.00662842,
726,-0.000610352,0.00657959,
728,-0.00244141,0.00650635,
730,-0.000610352,0.00648804,
732,0.00610352,0.00651855,
734,-0.00671387,0.00653687,
736,-0.00976563,0.006604,
738,0.00793457,0.00665283,
740,-0.00427246,0.00651245,
742,0,0.00650024,
744,0.0012207,0.00650635,
746,0.00427246,0.0064209,
748,-0.012207,0.00652466,
750,-0.00610352,0.00656128,
752,-0.00854492,0.00661011,
754,-0.00488281,0.00654907,
756,-0.00915527,0.00649414,
758,0.000610352,0.00644531,
760,-0.010376,0.00646973,
762,-0.0164795,0.00657349,
764,0,0.00656738,
766,-0.00549316,0.0065918,
768,-0.0115967,0.00670776,
770,0.00671387,0.00675049,
772,0.000610352,0.00675049,
774,-0.00732422,0.00675659,
776,-0.0128174,0.00681763,
778,0,0.00671997,
780,-0.00427246,0.00673828,
782,-0.00976563,0.00682373,
784,-0.00732422,0.00683594,
786,-0.0115967,0.00688477,
788,-0.00671387,0.00692749,
790,-0.0109863,0.00701904,
792,0.000610352,0.00698242,
794,-0.00854492,0.00703735,
796,-0.00427246,0.00702515,
798,-0.00183105,0.00700073,
800,-0.00671387,0.00702515,
802,-0.00427246,0.00701904,
804,-0.00183105,0.00695801,
806,-0.00366211,0.0069458,
808,0.0012207,0.00685425,
810,-0.0128174,0.0069519,
812,0.00183105,0.00695801,
814,-0.00610352,0.00693359,
816,-0.00549316,0.00681763,
818,-0.00671387,0.00684814,
820,-0.00305176,0.00682373,
822,-0.00305176,0.00682983,
824,0.000610352,0.00674438,
826,-0.00183105,0.00663452,
828,-0.00366211,0.00665283,
830,-0.00976563,0.00668335,
832,0.0195313,0.00685425,
834,0.00488281,0.00684814,
836,-0.0158691,0.00695801,
838,-0.00305176,0.00693359,
840,-0.00793457,0.00684814,
842,-0.0152588,0.00689697,
844,-0.0164795,0.00705566,
846,0.0012207,0.00686646,
848,-0.0128174,0.00698242,
850,-0.0128174,0.00709229,
852,-0.00244141,0.00708618,
854,-0.00732422,0.00708008,
856,-0.0109863,0.00714111,
858,0.00610352,0.00716553,
860,-0.000610352,0.00707397,
862,-0.00793457,0.00703125,
864,-0.0152588,0.00714111,
866,-0.0195313,0.00733032,
868,-0.000610352,0.00720215,
870,-0.00610352,0.0071106,
872,-0.00854492,0.00710449,
874,-0.00549316,0.00704346,
876,0.00183105,0.00687256,
878,0.00183105,0.00668945,
880,-0.000610352,0.00667114,
882,0.0158691,0.00667725,
884,-0.00244141,0.006604,
886,-0.00549316,0.0065979,
888,-0.00305176,0.00658569,
890,-0.00366211,0.00658569,
892,-0.00488281,0.00661621,
894,-0.0183105,0.0067627,
896,-0.0012207,0.00675049,
898,-0.00976563,0.00679321,
900,-0.0134277,0.00681152,
902,0,0.00678711,
904,-0.00366211,0.00679932,
906,-0.00305176,0.00681763,
908,-0.0012207,0.0067627,
910,-0.00366211,0.0067627,
912,-0.00366211,0.00671387,
914,0.00183105,0.006604,
916,-0.00488281,0.006604,
918,0.00488281,0.00656128,
920,-0.00793457,0.00654297,
922,0.00671387,0.00645752,
924,0.00244141,0.00622559,
926,0,0.00621948,
928,0.012207,0.00631714,
930,-0.00671387,0.00637817,
932,-0.0012207,0.00632935,
934,-0.0012207,0.00627441,
936,0.0244141,0.0064209,
938,-0.0164795,0.00650635,
940,-0.0170898,0.00663452,
942,0.00183105,0.00665283,
944,-0.000610352,0.00664673,
946,0.0012207,0.00661621,
948,-0.000610352,0.00650024,
950,-0.0134277,0.00657349,
952,-0.0012207,0.00650024,
954,-0.00427246,0.00649414,
956,-0.00305176,0.00643311,
958,0,0.006427,
960,-0.00793457,0.00640259,
962,-0.00305176,0.00626831,
964,-0.0012207,0.00628052,
966,-0.00976563,0.00632324,
968,-0.00488281,0.0062561,
970,-0.00305176,0.00621948,
972,0.0012207,0.00622559,
974,-0.00244141,0.00617676,
976,-0.00366211,0.00608521,
978,-0.00915527,0.00617676,
980,-0.000610352,0.00614014,
982,0.00976563,0.00614014,
984,-0.00305176,0.00609741,
986,-0.0164795,0.00614624,
988,0.00915527,0.00617065,
990,0.00244141,0.00608521,
992,-0.00793457,0.00615845,
994,-0.00183105,0.00609131,
996,0.000610352,0.00605469,
998,-0.00366211,0.006073,
1000,0.000610352,0.00601196,
1002,-0.00183105,0.00598755,
1004,0.0012207,0.00598145,
1006,0.00488281,0.00599365,
1008,-0.00305176,0.00601196,
1010,-0.00488281,0.00593262,
1012,0.00427246,0.00595703,
1014,-0.00183105,0.00591431,
1016,0.0012207,0.00587158,
1018,0.00732422,0.00587769,
1020,0,0.00584717,
1022,-0.0213623,0.00603027,
1024,0.00244141,0.00604858,
1026,-0.00366211,0.00606689,
1028,-0.0109863,0.00614014,
1030,-0.00427246,0.00608521,
1032,0.00915527,0.00598145,
1034,-0.0274658,0.00620728,
1036,-0.010376,0.00615234,
1038,0.00610352,0.00618286,
1040,-0.00244141,0.00612793,
1042,0.00244141,0.00599976,
1044,-0.00854492,0.00592041,
1046,-0.0213623,0.00612183,
1048,-0.00427246,0.00603638,
1050,-0.00915527,0.00599976,
1052,-0.0109863,0.00608521,
1054,-0.0109863,0.00612183,
1056,-0.00793457,0.00609131,
1058,-0.00732422,0.00610352,
1060,-0.00183105,0.00611572,
1062,-0.00244141,0.00606079,
1064,-0.00854492,0.00599365,
1066,-0.00305176,0.00582886,
1068,0.00366211,0.00585938,
1070,-0.00366211,0.00583496,
1072,-0.000610352,0.00575562,
1074,-0.012207,0.00582275,
1076,-0.010376,0.0059082,
1078,-0.00549316,0.00594482,
1080,0.00610352,0.00599976,
1082,-0.00488281,0.00588989,
1084,-0.0115967,0.00598145,
1086,-0.00488281,0.00597534,
1088,-0.00488281,0.00599365,
1090,-0.00305176,0.00598755,
1092,-0.00488281,0.00598755,
1094,-0.00610352,0.00586548,
1096,-0.0115967,0.00596924,
1098,-0.00732422,0.00594482,
1100,-0.00305176,0.00584106,
1102,-0.0109863,0.00595093,
1104,-0.00366211,0.00595093,
1106,-0.00183105,0.00593872,
1108,-0.00244141,0.00595093,
1110,-0.0146484,0.00606079,
1112,-0.00610352,0.00608521,
1114,-0.0012207,0.0060791,
1116,-0.00610352,0.00609131,
1118,-0.00610352,0.00610352,
1120,0.0012207,0.00603638,
1122,0.012207,0.00609131,
1124,-0.0177002,0.0062439,
1126,0.000610352,0.00625,
1128,0.00366211,0.00616455,
1130,-0.00671387,0.00616455,
1132,-0.0134277,0.00628662,
1134,-0.00976563,0.00637207,
1136,-0.0146484,0.00627441,
1138,-0.0134277,0.0062439,
1140,-0.010376,0.00617676,
1142,-0.0109863,0.00626831,
1144,-0.0134277,0.00639648,
1146,-0.00793457,0.00646362,
1148,-0.00854492,0.00654297,
1150,-0.00976563,0.00650635,
1152,-0.00305176,0.00652466,
1154,-0.0109863,0.0065918,
1156,-0.00976563,0.00665894,
1158,-0.00183105,0.00667725,
1160,-0.00488281,0.00664673,
1162,-0.000610352,0.00662231,
1164,0.0012207,0.00662231,
1166,-0.00793457,0.006604,
1168,-0.00366211,0.0065918,
1170,-0.00488281,0.00661011,
1172,-0.00244141,0.00662231,
1174,-0.00793457,0.00667725,
1176,-0.00427246,0.00668335,
1178,-0.00854492,0.00667725,
1180,-0.00244141,0.00669556,
1182,-0.0128174,0.00672607,
1184,-0.00610352,0.00675659,
1186,-0.00915527,0.00668335,
1188,-0.0115967,0.00670776,
1190,-0.00549316,0.00673828,
1192,-0.0128174,0.00678711,
1194,-0.00793457,0.00684814,
1196,-0.00183105,0.00686035,
1198,-0.00671387,0.00689087,
1200,-0.0140381,0.00702515,
1202,-0.00183105,0.00702515,
1204,-0.00488281,0.00706177,
1206,-0.0134277,0.00714722,
1208,0.0012207,0.00712891,
1210,0.0219727,0.0072998,
1212,-0.0256348,0.00751343,
1214,-0.0158691,0.00765381,
1216,0.012207,0.00776367,
1218,0.00183105,0.00770874,
1220,-0.00976563,0.0078064,
1222,-0.00915527,0.00768433,
1224,-0.00732422,0.00773315,
1226,-0.00854492,0.00778198,
1228,-0.00915527,0.00776367,
1230,-0.00671387,0.00778809,
1232,-0.00366211,0.00773315,
1234,-0.00549316,0.00751343,
1236,0.0012207,0.00742187,
1238,-0.00488281,0.00740967,
1240,-0.0109863,0.00749512,
1242,-0.00244141,0.00749512,
1244,0.00976563,0.00750732,
1246,0,0.0072937,
1248,-0.00732422,0.00732422,
1250,-0.00366211,0.00726929,
1252,-0.00183105,0.00717773,
1254,0.00305176,0.00709839,
1256,-0.00244141,0.00704346,
1258,-0.00366211,0.00700684,
1260,-0.00427246,0.00703125,
1262,-0.00244141,0.00703125,
1264,-0.00671387,0.00701294,
1266,0.00305176,0.00701294,
1268,-0.00366211,0.00701294,
1270,-0.00549316,0.00703125,
1272,-0.00671387,0.00709229,
1274,-0.0012207,0.00698242,
1276,-0.00427246,0.00692139,
1278,-0.00427246,0.00690918,
1280,-0.0115967,0.00696411,
1282,-0.000610352,0.00692139,
1284,0.000610352,0.00681152,
1286,-0.00305176,0.00679321,
1288,-0.0183105,0.00692749,
1290,-0.00244141,0.00692139,
1292,0,0.00687256,
1294,-0.00854492,0.00689697,
1296,-0.012207,0.00690308,
1298,-0.00732422,0.00690308,
1300,-0.00793457,0.0069519,
1302,-0.00671387,0.00690918,
1304,0.00183105,0.00689087,
1306,-0.00854492,0.00695801,
1308,-0.000610352,0.0069397,
1310,-0.00427246,0.00683594,
1312,-0.00549316,0.00682983,
1314,-0.0012207,0.00682983,
1316,-0.0134277,0.00690308,
1318,-0.00793457,0.00692139,
1320,-0.00366211,0.0069458,
1322,-0.0109863,0.00693359,
1324,-0.010376,0.00686035,
1326,-0.0140381,0.00699463,
1328,-0.0170898,0.00712891,
1330,0.00183105,0.00708008,
1332,0.00915527,0.00703735,
1334,-0.010376,0.00704346,
1336,-0.0140381,0.00703735,
1338,-0.000610352,0.00690918,
1340,0.00549316,0.00686035,
1342,-0.0146484,0.00689697,
1344,-0.00915527,0.00685425,
1346,-0.0134277,0.00690918,
1348,-0.00549316,0.00687866,
1350,-0.0128174,0.00690918,
1352,-0.00915527,0.00697021,
1354,-0.00366211,0.00689697,
1356,0.00183105,0.00681763,
1358,-0.00854492,0.00688477,
1360,-0.00671387,0.00690308,
1362,-0.00488281,0.0069458,
1364,0,0.00693359,
1366,-0.010376,0.00695801,
1368,-0.00732422,0.00699463,
1370,-0.00854492,0.00703125,
1372,-0.0128174,0.00713501,
1374,-0.00549316,0.0071106,
1376,-0.00671387,0.00713501,
1378,0,0.00704956,
1380,-0.000610352,0.00703125,
1382,-0.0140381,0.00704346,
1384,0.00732422,0.00705566,
1386,0.00305176,0.00699463,
1388,-0.00183105,0.00689697,
1390,-0.00366211,0.00687866,
1392,0.00305176,0.00678101,
1394,-0.00610352,0.0067627,
1396,0.0012207,0.00675659,
1398,-0.00183105,0.00670776,
1400,-0.00915527,0.00665894,
1402,-0.00610352,0.00670166,
1404,-0.00305176,0.00668335,
1406,0,0.00654907,
1408,0.010376,0.00664063,
1410,-0.00915527,0.00651245,
1412,-0.00183105,0.00627441,
1414,-0.00549316,0.00617065,
1416,0.0012207,0.00606079,
1418,-0.00366211,0.0060791,
1420,-0.00976563,0.0060791,
1422,0.00732422,0.00606079,
1424,-0.0012207,0.00599976,
1426,-0.0268555,0.00618286,
1428,0.000610352,0.00609741,
1430,0.00549316,0.00608521,
1432,0.0012207,0.00606079,
1434,-0.0128174,0.00613403,
1436,-0.0115967,0.00623779,
1438,-0.00610352,0.00625,
1440,-0.00183105,0.00615845,
1442,-0.00183105,0.00615234,
1444,-0.00610352,0.00611572,
1446,-0.0109863,0.00622559,
1448,0.00183105,0.00617065,
1450,-0.0012207,0.00614624,
1452,0,0.00612793,
1454,-0.0012207,0.00610962,
1456,0.000610352,0.00609131,
1458,0,0.00605469,
1460,0.000610352,0.00601807,
1462,0.00305176,0.00602417,
1464,-0.00183105,0.00597534,
1466,0.00671387,0.00601196,
1468,0.00244141,0.00599976,
1470,0,0.00594482,
1472,0.00244141,0.0059021,
1474,0.0183105,0.006073,
1476,-0.0140381,0.00617065,
1478,-0.00427246,0.00617065,
1480,0.00793457,0.00613403,
1482,-0.00366211,0.00616455,
1484,-0.00854492,0.0062439,
1486,-0.00732422,0.00628662,
1488,-0.00244141,0.00612793,
1490,-0.0152588,0.0062561,
1492,0,0.0062561,
1494,0.00488281,0.00621948,
1496,-0.0012207,0.00610962,
1498,-0.00366211,0.006073,
1500,-0.00244141,0.00601807,
1502,0.00366211,0.00598755,
1504,0.00793457,0.00604858,
1506,-0.00549316,0.00601807,
1508,0.0140381,0.00615234,
1510,0.00488281,0.00615845,
1512,-0.0115967,0.00621948,
1514,-0.0012207,0.00621948,
1516,0.0140381,0.00622559,
1518,0.0012207,0.00615845,
1520,-0.00488281,0.00617065,
1522,-0.00610352,0.00612183,
1524,-0.0128174,0.00614624,
1526,-0.00610352,0.00606689,
1528,-0.00305176,0.00592651,
1530,-0.00671387,0.00597534,
1532,-0.0128174,0.00601196,
1534,-0.00976563,0.00600586,
1536,-0.00732422,0.00593872,
1538,-0.00610352,0.00599365,
1540,0.00366211,0.00597534,
1542,-0.0134277,0.00596313,
1544,0.00488281,0.00592041,
1546,-0.010376,0.00588989,
1548,-0.00732422,0.0059082,
1550,-0.00549316,0.00583496,
1552,-0.00549316,0.00579834,
1554,-0.00732422,0.00583496,
1556,-0.00854492,0.0059021,
1558,-0.00366211,0.00585327,
1560,-0.0109863,0.005896,
1562,-0.00610352,0.0059082,
1564,0.0012207,0.00592041,
1566,0,0.00581665,
1568,0.00366211,0.00578003,
1570,-0.00671387,0.00576172,
1572,0.000610352,0.00563965,
1574,-0.0115967,0.00570068,
1576,0,0.00563354,
1578,-0.00549316,0.00568848,
1580,-0.00488281,0.0057312,
1582,-0.00671387,0.00565796,
1584,-0.00915527,0.00567627,
1586,-0.00671387,0.00571289,
1588,-0.00671387,0.00576172,
1590,-0.00671387,0.00579224,
1592,-0.00183105,0.00578003,
1594,-0.0128174,0.00584717,
1596,-0.00183105,0.00585327,
1598,0,0.00583496,
1600,-0.0201416,0.00594482,
1602,-0.00793457,0.00596313,
1604,0.0012207,0.00594482,
1606,-0.00793457,0.00602417,
1608,-0.00427246,0.00596313,
1610,-0.00793457,0.00595093,
1612,-0.00366211,0.00596924,
1614,-0.00732422,0.00598755,
1616,-0.0128174,0.00610352,
1618,-0.000610352,0.006073,
1620,-0.00915527,0.00606689,
1622,0.00305176,0.00602417,
1624,-0.00305176,0.00604248,
1626,-0.0201416,0.00597534,
1628,-0.00427246,0.00601196,
1630,-0.00244141,0.00598145,
1632,-0.00366211,0.00600586,
1634,-0.00549316,0.00593262,
1636,-0.0109863,0.00592651,
1638,-0.0115967,0.00598145,
1640,-0.00915527,0.00605469,
1642,0.000610352,0.00604248,
1644,0.0012207,0.00599365,
1646,-0.00915527,0.00597534,
1648,-0.00671387,0.00602417,
1650,0.00549316,0.00606689,
1652,-0.0012207,0.0060791,
1654,-0.0115967,0.00618286,
1656,-0.00732422,0.00625,
1658,0.00549316,0.00630493,
1660,-0.00183105,0.00631714,
1662,-0.0109863,0.00639648,
1664,-0.00305176,0.00640869,
1666,-0.00854492,0.006427,
1668,0.00183105,0.0064209,
1670,0.00366211,0.00645752,
1672,-0.010376,0.00653687,
1674,-0.00488281,0.00640259,
1676,-0.0012207,0.00627441,
1678,-0.00244141,0.0062561,
1680,-0.00976563,0.00627441,
1682,-0.00366211,0.00627441,
1684,-0.00549316,0.0062439,
1686,0,0.00617065,
1688,-0.0109863,0.0062561,
1690,-0.00549316,0.00615845,
1692,-0.00732422,0.00623169,
1694,-0.0012207,0.00619507,
1696,0.00366211,0.00621948,
1698,-0.00427246,0.00622559,
1700,-0.00732422,0.00627441,
1702,-0.0152588,0.00639038,
1704,0.00549316,0.00636597,
1706,-0.00366211,0.00634766,
1708,-0.0134277,0.00634155,
1710,-0.000610352,0.00629883,
1712,-0.0152588,0.00633545,
1714,-0.00671387,0.00639038,
1716,-0.00305176,0.00628052,
1718,0.00488281,0.00631714,
1720,-0.0128174,0.00639648,
1722,-0.00244141,0.00635986,
1724,0.0134277,0.00636597,
1726,-0.0109863,0.00641479,
1728,-0.0158691,0.00654297,
1730,-0.00305176,0.00650635,
1732,0.00366211,0.00641479,
1734,-0.010376,0.0064209,
1736,-0.012207,0.00646973,
1738,-0.0152588,0.00656128,
1740,-0.00549316,0.00657959,
1742,-0.00427246,0.00648804,
1744,-0.00854492,0.00652466,
1746,-0.00305176,0.00645142,
1748,0.000610352,0.00638428,
1750,-0.00610352,0.00639038,
1752,0.00244141,0.00635986,
1754,-0.00488281,0.00633545,
1756,0.0152588,0.00640259,
1758,0.00488281,0.00641479,
1760,-0.0183105,0.00648804,
1762,-0.000610352,0.00643311,
1764,0.00854492,0.00650635,
1766,-0.00610352,0.00656738,
1768,-0.00305176,0.00656128,
1770,-0.00427246,0.00653687,
1772,-0.00854492,0.00661621,
1774,-0.00549316,0.00655518,
1776,0,0.00655518,
1778,-0.00427246,0.00654297,
1780,-0.00671387,0.00656128,
1782,0.000610352,0.00650024,
1784,-0.00427246,0.00645142,
1786,-0.00305176,0.00641479,
1788,0,0.00634766,
1790,-0.00854492,0.00636597,
1792,-0.00366211,0.00638428,
1794,0.00305176,0.00628662,
1796,-0.00427246,0.00631104,
1798,-0.00610352,0.00637207,
1800,-0.00488281,0.00621948,
1802,0.00488281,0.00618896,
1804,-0.00366211,0.00621338,
1806,0.00610352,0.00619507,
1808,0.00488281,0.00620117,
1810,-0.0012207,0.00613403,
1812,-0.00732422,0.00617065,
1814,0.00488281,0.00614624,
1816,-0.012207,0.00614014,
1818,-0.00671387,0.00620117,
1820,-0.0140381,0.00625,
1822,-0.00366211,0.0062561,
1824,-0.00488281,0.00627441,
1826,-0.00610352,0.00613403,
1828,-0.00793457,0.00617065,
1830,0.00427246,0.00618896,
1832,-0.00427246,0.00619507,
1834,0.00366211,0.00617676,
1836,-0.0152588,0.00621948,
1838,0.00671387,0.00617065,
1840,-0.00793457,0.00615845,
1842,-0.010376,0.0062561,
1844,-0.010376,0.00634766,
1846,-0.00610352,0.00631714,
1848,-0.00183105,0.00626831,
1850,-0.010376,0.00631714,
1852,-0.00305176,0.00633545,
1854,0.0012207,0.00623169,
1856,0,0.00615845,
1858,-0.0012207,0.00611572,
1860,0.00671387,0.00616455,
1862,-0.00854492,0.00614014,
1864,-0.00427246,0.00615234,
1866,-0.00305176,0.00609741,
1868,-0.00305176,0.00610962,
1870,0.0146484,0.00621948,
1872,-0.00915527,0.00620728,
1874,-0.0250244,0.00640869,
1876,-0.0012207,0.00640869,
1878,0.00854492,0.00646973,
1880,0.00976563,0.00646973,
1882,-0.00915527,0.00652466,
1884,-0.0115967,0.00658569,
1886,-0.0012207,0.0065979,
1888,-0.00244141,0.00651245,
1890,-0.00610352,0.00651855,
1892,-0.000610352,0.00645142,
1894,0.00244141,0.00646362,
1896,-0.00488281,0.00647583,
1898,-0.00915527,0.00652466,
1900,-0.00244141,0.00647583,
1902,0.00854492,0.00640869,
1904,0.00366211,0.00639038,
1906,0.00183105,0.00637207,
1908,0.0012207,0.00625,
1910,0.00976563,0.00634155,
1912,-0.00549316,0.0062439,
1914,0.0012207,0.00618896,
1916,-0.00793457,0.00623779,
1918,-0.0109863,0.00629883,
1920,0.00427246,0.00621338,
1922,-0.00732422,0.00626221,
1924,-0.0128174,0.0062561,
1926,-0.0109863,0.0062561,
1928,-0.00793457,0.00617676,
1930,0.00183105,0.00616455,
1932,-0.00183105,0.00614624,
1934,-0.00793457,0.00612183,
1936,-0.00488281,0.00604858,
1938,-0.0012207,0.0059082,
1940,0,0.00585327,
1942,-0.010376,0.00591431,
1944,0.00366211,0.00586548,
1946,-0.0012207,0.00584717,
1948,-0.00183105,0.00585938,
1950,0.00366211,0.00583496,
1952,-0.00793457,0.00588989,
1954,-0.00488281,0.00588989,
1956,-0.00427246,0.00578003,
1958,-0.00793457,0.00581055,
1960,-0.00305176,0.00565796,
1962,-0.0115967,0.00576782,
1964,-0.010376,0.00578613,
1966,0.000610352,0.0057312,
1968,0.0134277,0.00583496,
1970,-0.0140381,0.00593262,
1972,0.00305176,0.00587769,
1974,0.010376,0.00592651,
1976,0.00427246,0.00596924,
1978,-0.00732422,0.00599976,
1980,-0.00915527,0.00602417,
1982,0,0.00601807,
1984,-0.0012207,0.00598755,
1986,-0.0201416,0.00615845,
1988,-0.010376,0.00626221,
1990,-0.000610352,0.00618286,
1992,-0.0134277,0.00628052,
1994,-0.00793457,0.00632935,
1996,-0.00671387,0.00635376,
1998,-0.00610352,0.00635376,
2000,-0.00549316,0.00635986,
2002,-0.00305176,0.00634155,
2004,-0.00366211,0.00634155,
2006,-0.0109863,0.00639038,
2008,-0.00549316,0.00639648,
2010,-0.00671387,0.00645142,
2012,0.00427246,0.0064209,
2014,-0.012207,0.00649414,
2016,-0.0128174,0.00650024,
2018,0.000610352,0.00643921,
2020,-0.00183105,0.00631714,
2022,-0.00366211,0.00631714,
2024,-0.00732422,0.00634155,
2026,-0.00305176,0.00631104,
2028,0.0012207,0.0062439,
2030,-0.0012207,0.00621338,
2032,-0.00793457,0.00625,
2034,0.000610352,0.00621948,
2036,-0.000610352,0.006073,
2038,-0.00488281,0.00605469,
2040,-0.00183105,0.00599365,
2042,-0.00244141,0.00591431,
2044,-0.00854492,0.005896,
2046,0.00305176,0.00586548,
2048,-0.00244141,0.00587158,
2050,-0.0012207,0.00578003,
2052,0.0012207,0.00576172,
2054,0.0012207,0.00576172,
2056,0.00244141,0.00578613,
2058,-0.00610352,0.00583496,
2060,-0.00549316,0.00582275,
2062,0.00244141,0.00576172,
2064,-0.00427246,0.00576172,
2066,-0.0183105,0.00591431,
2068,-0.00793457,0.00596313,
2070,-0.00610352,0.00587769,
2072,-0.0128174,0.00591431,
2074,-0.00549316,0.00571899,
2076,-0.00183105,0.0057251,
2078,-0.0109863,0.00574951,
2080,-0.00366211,0.00568848,
2082,0.0012207,0.00560913,
2084,-0.00427246,0.00553589,
2086,-0.00488281,0.00557251,
2088,-0.0012207,0.0055603,
2090,-0.00427246,0.00554199,
2092,-0.00915527,0.00562744,
2094,-0.00671387,0.00567017,
2096,-0.00244141,0.00564575,
2098,-0.00915527,0.00564575,
2100,-0.00854492,0.00570679,
2102,-0.00610352,0.00568237,
2104,-0.00671387,0.00571289,
2106,-0.0115967,0.00581055,
2108,0.0012207,0.00581055,
2110,-0.0134277,0.00584717,
2112,-0.00671387,0.00585938,
2114,0.00793457,0.00592651,
2116,-0.0109863,0.00595703,
2118,-0.00427246,0.00588989,
2120,0.00366211,0.00588379,
2122,-0.00305176,0.00584106,
2124,-0.00732422,0.00578613,
2126,0.00549316,0.0057312,
2128,-0.00854492,0.0057373,
2130,-0.00366211,0.00575562,
2132,-0.00366211,0.00577393,
2134,-0.00915527,0.00578613,
2136,-0.00671387,0.00580444,
2138,-0.00549316,0.00584717,
2140,-0.00366211,0.00588379,
2142,0.0128174,0.0059082,
2144,-0.000610352,0.00587769,
2146,-0.0134277,0.00599976,
2148,-0.00305176,0.00601196,
2150,0.012207,0.00609741,
2152,0.00915527,0.00610962,
2154,0.00671387,0.00612793,
2156,-0.0164795,0.00625,
2158,-0.00488281,0.00621948,
2160,0.00732422,0.00626221,
2162,0,0.00614624,
2164,-0.0128174,0.00617065,
2166,-0.0012207,0.00617676,
2168,-0.00610352,0.00610352,
2170,0.000610352,0.00596924,
2172,-0.0134277,0.006073,
2174,0.00366211,0.00600586,
2176,-0.0128174,0.00609131,
2178,-0.00549316,0.006073,
2180,-0.00305176,0.00601196,
2182,0.00915527,0.00610352,
2184,0.00244141,0.00611572,
2186,-0.00610352,0.00597534,
2188,-0.00915527,0.00596313,
2190,0.00610352,0.00601807,
2192,0.00793457,0.00596313,
2194,-0.00366211,0.00592041,
2196,-0.00671387,0.00592041,
2198,0,0.00585938,
2200,-0.00366211,0.00584106,
2202,-0.00732422,0.00588379,
2204,0.0213623,0.00606079,
2206,-0.0170898,0.00612183,
2208,-0.00549316,0.00612183,
2210,0.00549316,0.00610962,
2212,-0.00549316,0.00612183,
2214,-0.00488281,0.00604858,
2216,-0.00732422,0.00599365,
2218,-0.00488281,0.00603638,
2220,0.000610352,0.00602417,
2222,-0.00244141,0.00601196,
2224,-0.00427246,0.00598145,
2226,-0.000610352,0.00595703,
2228,-0.00366211,0.00598145,
2230,0.00488281,0.00601807,
2232,-0.00671387,0.00600586,
2234,-0.0012207,0.00601196,
2236,-0.00915527,0.00609741,
2238,-0.00610352,0.00610962,
2240,0.00244141,0.00611572,
2242,0.00549316,0.00614624,
2244,-0.000610352,0.00606689,
2246,-0.00427246,0.0060791,
2248,0.00854492,0.00614014,
2250,0.00732422,0.00620117,
2252,0.00915527,0.00628052,
2254,-0.0128174,0.00639648,
2256,-0.00366211,0.00640869,
2258,-0.00305176,0.00637817,
2260,-0.0012207,0.00633545,
2262,-0.0158691,0.00646973,
2264,-0.00427246,0.00646973,
2266,-0.00488281,0.00633545,
2268,-0.00488281,0.00630493,
2270,0.00183105,0.00626221,
2272,-0.00305176,0.00616455,
2274,0.00183105,0.00612793,
2276,-0.00427246,0.00615234,
2278,-0.0012207,0.00605469,
2280,-0.00793457,0.00609741,
2282,-0.00610352,0.00614624,
2284,-0.00915527,0.00619507,
2286,-0.012207,0.00626831,
2288,0.0012207,0.00626831,
2290,-0.00671387,0.00629272,
2292,-0.00488281,0.00625,
2294,-0.00366211,0.00621948,
2296,-0.000610352,0.00620117,
2298,-0.00244141,0.00613403,
2300,-0.00183105,0.00606689,
2302,0.0012207,0.00601807,
2304,0.00427246,0.00599365,
2306,-0.00976563,0.00597534,
2308,-0.00549316,0.00601807,
2310,-0.00183105,0.0059021,
2312,0.0189209,0.00602417,
2314,-0.00915527,0.00603638,
2316,-0.0213623,0.00614014,
2318,0.00305176,0.00612793,
2320,0.00305176,0.00612183,
2322,-0.00671387,0.00615845,
2324,-0.00610352,0.00614624,
2326,-0.00549316,0.00614624,
2328,0.0012207,0.006073,
2330,0.00305176,0.00606689,
2332,-0.000610352,0.00603638,
2334,-0.00610352,0.00600586,
2336,0.00610352,0.00599976,
2338,0,0.00594482,
2340,-0.00488281,0.00595703,
2342,-0.0012207,0.00584106,
2344,-0.00915527,0.00592651,
2346,0.0012207,0.00580444,
2348,-0.00488281,0.00582275,
2350,-0.0146484,0.00584717,
2352,-0.00671387,0.00582275,
2354,-0.00427246,0.00579834,
2356,-0.00488281,0.00568237,
2358,-0.0109863,0.00574341,
2360,-0.0128174,0.00579834,
2362,-0.00183105,0.00581665,
2364,0.00366211,0.0057251,
2366,-0.0134277,0.00584717,
2368,0.000610352,0.00579224,
2370,0,0.00578613,
2372,-0.00244141,0.00567627,
2374,0.00976563,0.0057373,
2376,-0.00427246,0.00565186,
2378,-0.00549316,0.00565186,
2380,-0.00244141,0.00564575,
2382,-0.00793457,0.00563354,
2384,0.00183105,0.00562744,
2386,-0.0152588,0.00571899,
2388,-0.010376,0.0057312,
2390,-0.00244141,0.00569458,
2392,-0.0170898,0.00578613,
2394,0.00366211,0.00578613,
2396,0.012207,0.00584106,
2398,-0.0256348,0.00609741,
2400,-0.00854492,0.00614624,
2402,0.0189209,0.00626221,
2404,-0.0012207,0.00606079,
2406,-0.0140381,0.00603027,
2408,-0.00671387,0.00604248,
2410,-0.00732422,0.00606079,
2412,-0.0146484,0.00615234,
2414,-0.000610352,0.00610962,
2416,-0.00671387,0.00610352,
2418,-0.0012207,0.00606689,
2420,-0.00610352,0.00612183,
2422,0,0.00609741,
2424,-0.00366211,0.00609131,
2426,-0.00183105,0.00610352,
2428,0,0.00606689,
2430,-0.00366211,0.00605469,
2432,-0.00549316,0.00604248,
2434,0.00610352,0.00609131,
2436,0,0.00599976,
2438,-0.00854492,0.00602417,
2440,-0.00976563,0.00609741,
2442,0.010376,0.00614624,
2444,-0.00305176,0.00617065,
2446,0.000610352,0.00613403,
2448,0.00183105,0.00606689,
2450,-0.00671387,0.00606079,
2452,0.00366211,0.00600586,
2454,-0.00488281,0.00592651,
2456,0.00549316,0.00594482,
2458,0.00549316,0.00596924,
2460,-0.0134277,0.00609131,
2462,-0.00183105,0.00595093,
2464,-0.000610352,0.00591431,
2466,-0.00244141,0.00588989,
2468,-0.0109863,0.00595093,
2470,-0.0012207,0.00594482,
2472,-0.00549316,0.00596924,
2474,0,0.00595093,
2476,-0.00427246,0.00595093,
2478,-0.0134277,0.006073,
2480,-0.0012207,0.00600586,
2482,0.0012207,0.00595703,
2484,-0.0012207,0.00587769,
2486,-0.00183105,0.00577393,
2488,-0.00793457,0.00584106,
2490,0.00488281,0.00582275,
2492,0.00915527,0.00586548,
2494,-0.00183105,0.00584717,
2496,-0.00427246,0.00588379,
2498,-0.00183105,0.00587769,
2500,-0.00488281,0.0059082,
2502,-0.00305176,0.00592651,
2504,-0.010376,0.00598755,
2506,-0.0177002,0.00606689,
2508,-0.00854492,0.00609741,
2510,-0.00183105,0.00609741,
2512,-0.00732422,0.00598145,
2514,0.00183105,0.0059082,
2516,-0.00366211,0.0057312,
2518,0.00427246,0.00574341,
2520,0.00366211,0.00574951,
2522,-0.00488281,0.0057312,
2524,-0.00549316,0.0057251,
2526,0.00244141,0.00569458,
2528,-0.00183105,0.00570068,
2530,-0.00793457,0.00574951,
2532,-0.00610352,0.00580444,
2534,0.00244141,0.00576782,
2536,-0.00183105,0.0057251,
2538,-0.00549316,0.00578003,
2540,0.00183105,0.00574951,
2542,0.0012207,0.00574951,
2544,-0.00366211,0.00569458,
2546,-0.00244141,0.00570679,
2548,0.00305176,0.00568848,
2550,-0.00549316,0.00559692,
2552,0.0012207,0.00554199,
2554,0.00671387,0.00556641,
2556,-0.00488281,0.00556641,
2558,-0.0012207,0.00546875,
2560,-0.00488281,0.0053894,
2562,-0.00549316,0.00542603,
2564,0,0.0053894,
2566,-0.00915527,0.00534668,
2568,-0.0109863,0.00545044,
2570,-0.00976563,0.0055481,
2572,0.0109863,0.00563354,
2574,-0.00793457,0.00561523,
2576,-0.00488281,0.00562134,
2578,0.0012207,0.00557861,
2580,0.00732422,0.00562744,
2582,-0.00671387,0.00561523,
2584,0.00427246,0.00563965,
2586,-0.00427246,0.00552979,
2588,-0.000610352,0.00543213,
2590,0.00244141,0.00543213,
2592,-0.000610352,0.00526733,
2594,-0.0146484,0.0053772,
2596,-0.00305176,0.00528564,
2598,0.00244141,0.00505371,
2600,-0.00305176,0.00499878,
2602,0.00244141,0.00483398,
2604,-0.0012207,0.00483398,
2606,-0.00183105,0.00471191,
2608,0.00427246,0.0046875,
2610,-0.00671387,0.0046814,
2612,0.00488281,0.00458374,
2614,-0.0134277,0.00471191,
2616,-0.00366211,0.0046814,
2618,-0.00183105,0.0046875,
2620,-0.00488281,0.00467529,
2622,0.000610352,0.0046814,
2624,0.00305176,0.00467529,
2626,-0.00610352,0.00471802,
2628,0.0109863,0.00482788,
2630,0.00671387,0.0048584,
2632,0.0012207,0.00481567,
2634,-0.00427246,0.00479736,
2636,-0.00976563,0.00489502,
2638,-0.00488281,0.0048584,
2640,0,0.00476074,
2642,-0.00671387,0.00472412,
2644,-0.00305176,0.00472412,
2646,-0.00244141,0.00474243,
2648,-0.00244141,0.00474854,
2650,-0.00793457,0.00476074,
2652,0.0012207,0.00473633,
2654,0.0134277,0.00482178,
2656,-0.00854492,0.00485229,
2658,-0.00366211,0.00483398,
2660,-0.012207,0.00482178,
2662,0.00671387,0.00487061,
2664,-0.00488281,0.00491333,
2666,0.00549316,0.00494385,
2668,0.00305176,0.0048645,
2670,-0.0170898,0.00502319,
2672,-0.00793457,0.00504761,
2674,0.00366211,0.00508423,
2676,-0.00366211,0.00507813,
2678,0.000610352,0.00494995,
2680,-0.010376,0.0050415,
2682,-0.00305176,0.00505981,
2684,-0.00244141,0.00507202,
2686,0.0012207,0.00506592,
2688,-0.0115967,0.00510254,
2690,0.000610352,0.00505981,
2692,-0.000610352,0.00497437,
2694,-0.00427246,0.00499878,
2696,0.00305176,0.00498657,
2698,-0.00427246,0.00501099,
2700,-0.0012207,0.00497437,
2702,-0.00549316,0.00499878,
2704,-0.00305176,0.00492554,
2706,-0.0012207,0.00476074,
2708,0.00366211,0.00471191,
2710,-0.00427246,0.00473633,
2712,-0.00976563,0.00476074,
2714,-0.00427246,0.00478516,
2716,-0.000610352,0.00475464,
2718,0.0012207,0.00472412,
2720,0.00610352,0.00474854,
2722,0,0.00469971,
2724,-0.00183105,0.00466309,
2726,0,0.00463867,
2728,0.00244141,0.00464478,
2730,0.00427246,0.00460815,
2732,0.00854492,0.00463257,
2734,-0.012207,0.00473022,
2736,-0.00305176,0.00474243,
2738,-0.00854492,0.00477295,
2740,0.0012207,0.00476685,
2742,-0.00549316,0.00480957,
2744,-0.00549316,0.00482788,
2746,0.00732422,0.00487671,
2748,-0.00976563,0.00494385,
2750,-0.00366211,0.00492554,
2752,0.00488281,0.00496216,
2754,-0.00427246,0.00493774,
2756,-0.0115967,0.00500488,
2758,0.00793457,0.00507202,
2760,-0.00305176,0.00505371,
2762,-0.00610352,0.00505981,
2764,-0.0140381,0.0052002,
2766,-0.00488281,0.00515747,
2768,0.00671387,0.00511475,
2770,-0.00549316,0.00507202,
2772,-0.00305176,0.00499268,
2774,-0.000610352,0.00491943,
2776,-0.00366211,0.00490723,
2778,0.010376,0.00499878,
2780,-0.00244141,0.00494995,
2782,-0.00549316,0.00493774,
2784,0.00183105,0.00491333,
2786,0.0164795,0.0050354,
2788,-0.0128174,0.00515747,
2790,-0.012207,0.00525513,
2792,0.00549316,0.00530396,
2794,-0.00305176,0.00518799,
2796,-0.00488281,0.0052063,
2798,-0.00671387,0.00524902,
2800,-0.00732422,0.00529175,
2802,-0.00183105,0.00528564,
2804,-0.010376,0.0053772,
2806,-0.00671387,0.00542603,
2808,-0.00183105,0.00540161,
2810,-0.00976563,0.00543213,
2812,0.00610352,0.00544434,
2814,0.00244141,0.00533447,
2816,0,0.00529785,
2818,0.00854492,0.00536499,
2820,0.00793457,0.00539551,
2822,0.00732422,0.00546265,
2824,0.00305176,0.00546265,
2826,0.00610352,0.00546265,
2828,-0.0012207,0.00536499,
2830,-0.00183105,0.00531616,
2832,-0.00793457,0.0053833,
2834,-0.00854492,0.00542603,
2836,-0.00366211,0.00536499,
2838,-0.00610352,0.0053772,
2840,-0.012207,0.00549927,
2842,-0.00793457,0.00551147,
2844,0.00671387,0.0055481,
2846,-0.000610352,0.00552979,
2848,0.00244141,0.00552979,
2850,0.00427246,0.00549316,
2852,0.010376,0.00558472,
2854,0,0.00545044,
2856,-0.00366211,0.00540161,
2858,0.0195313,0.0055603,
2860,0.0140381,0.00557861,
2862,-0.0183105,0.00569458,
2864,-0.022583,0.00587158,
2866,0.0134277,0.00595093,
2868,0.00976563,0.00601807,
2870,-0.0231934,0.0060791,
2872,-0.00427246,0.00604248,
2874,-0.00793457,0.00608521,
2876,-0.00244141,0.006073,
2878,-0.00854492,0.00615234,
2880,0.00183105,0.00606689,
2882,0.00427246,0.0060791,
2884,-0.0012207,0.00606689,
2886,0.00610352,0.00611572,
2888,-0.0170898,0.00617065,
2890,-0.00305176,0.00619507,
2892,0.0305176,0.00649414,
2894,-0.00427246,0.00649414,
2896,-0.0250244,0.00671387,
2898,-0.00976563,0.0067688,
2900,0.0012207,0.0067688,
2902,-0.00366211,0.00675049,
2904,-0.00915527,0.00681152,
2906,-0.010376,0.00690308,
2908,-0.00610352,0.00692749,
2910,-0.00366211,0.00692139,
2912,-0.00366211,0.00686035,
2914,0.00183105,0.00683594,
2916,-0.0012207,0.00684204,
2918,-0.00732422,0.00690308,
2920,0.00610352,0.00690308,
2922,0.00427246,0.0069458,
2924,-0.00427246,0.00697021,
2926,0.00305176,0.00700073,
2928,-0.00793457,0.00705566,
2930,-0.010376,0.0071167,
2932,0.00305176,0.00706177,
2934,0.000610352,0.0069458,
2936,-0.00549316,0.00697021,
2938,-0.00549316,0.0069397,
2940,0.0012207,0.0069397,
2942,-0.00183105,0.00690308,
2944,-0.00549316,0.00690308,
2946,0.00793457,0.00690918,
2948,0.0115967,0.00692749,
2950,-0.0128174,0.00701904,
2952,0.00366211,0.00700684,
2954,0.00244141,0.00698853,
2956,-0.00488281,0.00692139,
2958,0,0.00684204,
2960,-0.00793457,0.00689087,
2962,0.000610352,0.00683594,
2964,-0.00549316,0.00675049,
2966,-0.010376,0.00680542,
2968,-0.00183105,0.00675659,
2970,-0.00244141,0.00672607,
2972,0.0012207,0.00670776,
2974,0.0012207,0.00671387,
2976,-0.00915527,0.0067688,
2978,0.000610352,0.00667114,
2980,0.00366211,0.00668335,
2982,-0.000610352,0.00663452,
2984,-0.000610352,0.00662231,
2986,-0.00305176,0.00648804,
2988,-0.00183105,0.00637817,
2990,-0.00488281,0.00630493,
2992,-0.00244141,0.00627441,
2994,-0.00366211,0.00628052,
2996,-0.00549316,0.00628662,
2998,0.00244141,0.0062439,
3000,0.0177002,0.00634766,
3002,-0.010376,0.00643311,
3004,-0.00427246,0.00637207,
3006,0.00488281,0.00635376,
3008,0.00488281,0.00638428,
3010,0.00244141,0.00631104,
3012,-0.00915527,0.00634155,
3014,-0.00366211,0.00635376,
3016,-0.00488281,0.00640259,
3018,0.00915527,0.00640869,
3020,-0.00671387,0.00639648,
3022,-0.0164795,0.00648804,
3024,-0.00305176,0.00648804,
3026,0.00671387,0.00649414,
3028,0.00427246,0.00652466,
3030,-0.00915527,0.0065979,
3032,-0.0012207,0.00653076,
3034,-0.010376,0.00654907,
3036,-0.0115967,0.00662842,
3038,-0.00183105,0.00658569,
3040,-0.00488281,0.00651245,
3042,-0.0140381,0.00657349,
3044,-0.00427246,0.00654907,
3046,-0.010376,0.00664673,
3048,-0.00732422,0.00669556,
3050,-0.00488281,0.00670166,
3052,-0.00427246,0.00664063,
3054,0.010376,0.00674438,
3056,-0.00549316,0.0067627,
3058,0.0012207,0.00657959,
3060,0.00610352,0.00650024,
3062,-0.00244141,0.00634155,
3064,-0.000610352,0.00612183,
3066,-0.00976563,0.00608521,
3068,0.00549316,0.00604248,
3070,0.00183105,0.00582886,
3072,-0.0115967,0.0059021,
3074,-0.00976563,0.00592041,
3076,0.0164795,0.00606079,
3078,0,0.00597534,
3080,-0.0140381,0.00609741,
3082,0.0134277,0.00618896,
3084,0.00671387,0.0062439,
3086,-0.0115967,0.00629883,
3088,-0.00610352,0.00618896,
3090,-0.00366211,0.00619507,
3092,0.00305176,0.00592041,
3094,-0.00793457,0.00595703,
3096,-0.00427246,0.00574951,
3098,0.00244141,0.00567627,
3100,-0.0128174,0.00579224,
3102,-0.00244141,0.00578003,
3104,0.00549316,0.00574341,
3106,-0.00671387,0.00570679,
3108,0.00244141,0.00567017,
3110,-0.0170898,0.00580444,
3112,-0.00854492,0.00585327,
3114,-0.00854492,0.00592041,
3116,0.00183105,0.00592651,
3118,0.00183105,0.00587158,
3120,-0.00366211,0.00584717,
3122,-0.000610352,0.00581055,
3124,0.00732422,0.00584106,
3126,-0.00549316,0.00586548,
3128,0,0.00578613,
3130,-0.00305176,0.00571289,
3132,-0.00488281,0.0057312,
3134,-0.00305176,0.00575562,
3136,-0.00183105,0.00571899,
3138,0.00183105,0.00568237,
3140,-0.0146484,0.00581665,
3142,-0.00549316,0.00585327,
3144,-0.00183105,0.00581665,
3146,0.000610352,0.00574341,
3148,-0.000610352,0.00563354,
3150,-0.0140381,0.00564575,
3152,-0.0146484,0.00575562,
3154,-0.00549316,0.00578613,
3156,-0.00549316,0.00579224,
3158,-0.00488281,0.00584106,
3160,0.00244141,0.00578613,
3162,-0.00854492,0.00586548,
3164,-0.00732422,0.00588379,
3166,-0.00305176,0.00581055,
3168,-0.000610352,0.00579834,
3170,0.0195313,0.00596924,
3172,-0.00976563,0.00605469,
3174,-0.0170898,0.00621338,
3176,0.00610352,0.00618286,
3178,0.00610352,0.00623779,
3180,0.000610352,0.00620728,
3182,-0.00915527,0.00629272,
3184,0,0.00628662,
3186,0.00244141,0.00628052,
3188,0.00183105,0.00628052,
3190,-0.00366211,0.00626831,
3192,-0.00183105,0.00626221,
3194,0,0.00622559,
3196,-0.00183105,0.00618896,
3198,0.00915527,0.0062561,
3200,-0.00610352,0.00614014,
3202,-0.0134277,0.00617065,
3204,-0.00305176,0.00615845,
3206,0.00427246,0.00615234,
3208,0.00488281,0.00615234,
3210,-0.012207,0.00625,
3212,-0.00915527,0.00625,
3214,-0.00244141,0.00623779,
3216,-0.00488281,0.00623779,
3218,0.00427246,0.00618896,
3220,0.00549316,0.00617676,
3222,-0.00793457,0.00609131,
3224,-0.00793457,0.00614014,
3226,-0.00732422,0.00614624,
3228,-0.000610352,0.00610962,
3230,0.00732422,0.00609131,
3232,0,0.0060791,
3234,-0.00793457,0.00605469,
3236,-0.0128174,0.00606689,
3238,-0.00732422,0.00612183,
3240,0.00427246,0.00611572,
3242,0.00366211,0.00601196,
3244,-0.00183105,0.00598755,
3246,-0.00854492,0.00596924,
3248,-0.00549316,0.00595093,
3250,-0.0115967,0.00601807,
3252,0.0231934,0.00620728,
3254,0.0012207,0.00611572,
3256,-0.0152588,0.00621338,
3258,0.00244141,0.00622559,
3260,-0.00488281,0.00621338,
3262,-0.00366211,0.00622559,
3264,-0.00244141,0.0062439,
3266,-0.0134277,0.00628052,
3268,-0.00183105,0.0062439,
3270,-0.00427246,0.00626831,
3272,-0.0140381,0.00629272,
3274,-0.0012207,0.00620728,
3276,-0.00305176,0.006073,
3278,-0.0012207,0.00608521,
3280,-0.000610352,0.00595093,
3282,0.00915527,0.0059082,
3284,0,0.00584106,
3286,-0.00549316,0.00578003,
3288,0.00427246,0.00576172,
3290,0.00671387,0.00579224,
3292,0.00732422,0.00583496,
3294,0.00305176,0.00578613,
3296,-0.00671387,0.00581055,
3298,0.00305176,0.00581665,
3300,-0.00305176,0.00571899,
3302,0.00549316,0.00574951,
3304,-0.000610352,0.00570068,
3306,-0.00854492,0.00571899,
3308,0.010376,0.00579834,
3310,0.010376,0.0057312,
3312,-0.0146484,0.00579224,
3314,-0.00610352,0.00576782,
3316,0.00244141,0.00577393,
3318,-0.00427246,0.00579834,
3320,-0.0152588,0.00591431,
3322,-0.0012207,0.00592041,
3324,-0.0152588,0.00599976,
3326,-0.0128174,0.006073,
3328,-0.00732422,0.00614624,
3330,-0.010376,0.00621948,
3332,-0.010376,0.00627441,
3334,-0.00793457,0.00632324,
3336,-0.00183105,0.00632324,
3338,-0.00183105,0.00632324,
3340,-0.00488281,0.00622559,
3342,0.00671387,0.00623779,
3344,0.00183105,0.00623779,
3346,-0.0012207,0.0062439,
3348,0.00244141,0.00626221,
3350,0.0012207,0.00613403,
3352,-0.0012207,0.00599976,
3354,0.00488281,0.00599365,
3356,0,0.00593872,
3358,-0.00305176,0.00592041,
3360,-0.0109863,0.00600586,
3362,-0.00305176,0.00595093,
3364,-0.00183105,0.005896,
3366,0.012207,0.00598755,
3368,0.00183105,0.00599976,
3370,-0.00305176,0.00583496,
3372,-0.00244141,0.00576172,
3374,0.00976563,0.00568848,
3376,0.000610352,0.00563354,
3378,0.00305176,0.00560303,
3380,0.00366211,0.00563354,
3382,-0.00610352,0.00560303,
3384,-0.00610352,0.00566406,
3386,-0.00732422,0.00571289,
3388,0.00549316,0.00574951,
3390,-0.0115967,0.00582886,
3392,-0.00610352,0.00587158,
3394,-0.00549316,0.00592651,
3396,-0.0012207,0.00592041,
3398,-0.0109863,0.00593872,
3400,-0.00671387,0.00594482,
3402,0.0231934,0.00604248,
3404,-0.00549316,0.00606689,
3406,0.00183105,0.00604248,
3408,0.00976563,0.00609131,
3410,-0.0109863,0.0060791,
3412,-0.0115967,0.00610352,
3414,-0.00732422,0.00615234,
3416,0.0012207,0.00611572,
3418,-0.0012207,0.00608521,
3420,-0.0152588,0.00618286,
3422,-0.00488281,0.00615234,
3424,-0.00305176,0.00610352,
3426,0.00671387,0.00609741,
3428,-0.00488281,0.00614014,
3430,0,0.00606689,
3432,0.000610352,0.006073,
3434,-0.0146484,0.00614014,
3436,0,0.00601196,
3438,-0.00610352,0.00599976,
3440,-0.00976563,0.00605469,
3442,-0.00671387,0.00608521,
3444,-0.00244141,0.00609131,
3446,-0.00366211,0.00604248,
3448,-0.00305176,0.00601807,
3450,-0.010376,0.00600586,
3452,-0.00244141,0.00579834,
3454,-0.00793457,0.00586548,
3456,0.00793457,0.00579224,
3458,-0.0115967,0.00588379,
3460,-0.00732422,0.0059082,
3462,0.00305176,0.0059021,
3464,0,0.00587769,
3466,-0.00305176,0.00577393,
3468,-0.00244141,0.00578003,
3470,0.00305176,0.00576782,
3472,-0.00854492,0.00571289,
3474,-0.000610352,0.00570679,
3476,0.00732422,0.00574951,
3478,-0.00366211,0.00577393,
3480,0.00793457,0.00584717,
3482,0.00793457,0.00583496,
3484,-0.0109863,0.00594482,
3486,-0.00305176,0.00592041,
3488,0.00610352,0.00593872,
3490,-0.00793457,0.00595093,
3492,0,0.00587769,
3494,-0.00915527,0.00593872,
3496,-0.00427246,0.00591431,
3498,0.00305176,0.00591431,
3500,0.000610352,0.00588989,
3502,-0.00610352,0.005896,
3504,0.00244141,0.00591431,
3506,0,0.00582886,
3508,0.000610352,0.0057312,
3510,-0.0012207,0.00563965,
3512,-0.000610352,0.00549927,
3514,-0.0146484,0.00558472,
3516,-0.000610352,0.00556641,
3518,-0.00488281,0.00557251,
3520,-0.0115967,0.00553589,
3522,0,0.00552368,
3524,-0.00488281,0.00541992,
3526,-0.0177002,0.00546875,
3528,-0.00793457,0.00547485,
3530,-0.00366211,0.00540771,
3532,-0.00915527,0.00539551,
3534,-0.00183105,0.00533447,
3536,-0.00610352,0.0053772,
3538,-0.00549316,0.00541382,
3540,-0.00549316,0.00541992,
3542,0.0012207,0.00536499,
3544,-0.012207,0.00546875,
3546,0.00183105,0.00547485,
3548,-0.0012207,0.00546265,
3550,-0.00732422,0.00552368,
3552,0.000610352,0.00551758,
3554,-0.00671387,0.00553589,
3556,-0.00305176,0.00556641,
3558,0.00366211,0.00557251,
3560,0.00244141,0.00548706,
3562,0.0231934,0.00568848,
3564,-0.0219727,0.00588989,
3566,0.00427246,0.00581055,
3568,0.0140381,0.00593262,
3570,-0.00488281,0.00595093,
3572,-0.000610352,0.00593262,
3574,-0.00183105,0.00585327,
3576,0.000610352,0.00585327,
3578,-0.000610352,0.00582886,
3580,-0.00488281,0.00584106,
3582,0,0.00578003,
3584,-0.00732422,0.00579224,
3586,-0.00671387,0.00578613,
3588,-0.00976563,0.00582886,
3590,-0.00549316,0.00576782,
3592,0.00366211,0.00574341,
3594,-0.0140381,0.00582886,
3596,-0.0158691,0.00597534,
3598,0.0134277,0.00599976,
3600,0,0.00593262,
3602,-0.00244141,0.0057251,
3604,0.0128174,0.00579834,
3606,-0.0012207,0.00579224,
3608,-0.00244141,0.00571899,
3610,0.000610352,0.00561523,
3612,-0.012207,0.00562134,
3614,0.00488281,0.00559692,
3616,-0.00366211,0.00562134,
3618,-0.00488281,0.00565796,
3620,0.00793457,0.00558472,
3622,-0.00366211,0.00557251,
3624,0.00366211,0.00557861,
3626,-0.00366211,0.0055481,
3628,0.00488281,0.0055481,
3630,0.00793457,0.00562744,
3632,-0.00549316,0.00567627,
3634,-0.0140381,0.00567017,
3636,-0.00366211,0.00570679,
3638,-0.0134277,0.00578003,
3640,0.0115967,0.00579834,
3642,0.00549316,0.00578613,
3644,-0.022583,0.00598755,
3646,0.00366211,0.00598755,
3648,0.0177002,0.00613403,
3650,-0.00366211,0.00606689,
3652,-0.00732422,0.00611572,
3654,-0.0158691,0.00619507,
3656,0,0.00611572,
3658,0.00427246,0.00604248,
3660,-0.00610352,0.00603027,
3662,-0.0128174,0.00612793,
3664,-0.00854492,0.00621338,
3666,0,0.00618286,
3668,-0.0012207,0.00617065,
3670,-0.00183105,0.00615845,
3672,-0.00183105,0.00609131,
3674,0.00244141,0.00610962,
3676,0.0012207,0.00604858,
3678,-0.00915527,0.00610352,
3680,0.0012207,0.00603638,
3682,0.0012207,0.00596924,
3684,0.00549316,0.00591431,
3686,-0.0128174,0.00601196,
3688,0.000610352,0.00595703,
3690,-0.00488281,0.00592651,
3692,-0.00488281,0.00597534,
3694,-0.00244141,0.0059082,
3696,-0.00427246,0.0059082,
3698,-0.00244141,0.0059021,
3700,-0.00610352,0.00595703,
3702,0.00244141,0.00592041,
3704,0.00183105,0.00591431,
3706,0.000610352,0.00592041,
3708,0.00366211,0.00595093,
3710,-0.0115967,0.00605469,
3712,0.00793457,0.00612793,
3714,0.00732422,0.00605469,
3716,-0.0012207,0.00606079,
3718,-0.00305176,0.00604248,
3720,0.00244141,0.00595093,
3722,-0.00671387,0.00601807,
3724,0.0109863,0.0060791,
3726,0.00366211,0.00593872,
3728,0.00305176,0.00588989,
3730,0.00183105,0.00587158,
3732,0.00305176,0.00581055,
3734,0.0134277,0.00592651,
3736,-0.0195313,0.00606079,
3738,0.0012207,0.00601807,
3740,0,0.00596313,
3742,-0.00610352,0.00601196,
3744,-0.020752,0.00609741,
3746,0.00244141,0.00610352,
3748,-0.010376,0.00619507,
3750,-0.0146484,0.00626831,
3752,-0.00854492,0.00634766,
3754,-0.0012207,0.00629272,
3756,0.00427246,0.00630493,
3758,-0.00427246,0.00631104,
3760,-0.00366211,0.00632324,
3762,0,0.00609131,
3764,-0.000610352,0.00587769,
3766,0.00976563,0.00593262,
3768,-0.00305176,0.00582275,
3770,-0.00610352,0.00583496,
3772,-0.00488281,0.00587769,
3774,0.010376,0.00596313,
3776,-0.00610352,0.00601807,
3778,-0.00915527,0.00610352,
3780,0.00488281,0.00610352,
3782,0.00183105,0.00612183,
3784,-0.0134277,0.00618286,
3786,-0.00549316,0.00617065,
3788,0.00488281,0.00612183,
3790,0,0.00606689,
3792,0.000610352,0.00603638,
3794,-0.0109863,0.00600586,
3796,-0.00976563,0.00594482,
3798,0.00671387,0.00587769,
3800,0.0219727,0.00609741,
3802,-0.0128174,0.00620117,
3804,-0.00671387,0.00614014,
3806,0.00244141,0.00615234,
3808,0.0128174,0.0062561,
3810,0.00427246,0.00629272,
3812,0.00671387,0.00623779,
3814,-0.0195313,0.00638428,
3816,0.00244141,0.00637207,
3818,-0.00610352,0.00638428,
3820,0.00549316,0.00635986,
3822,0.00854492,0.00640869,
3824,-0.00671387,0.00643921,
3826,-0.00305176,0.00643311,
3828,0.0170898,0.00655518,
3830,0.00244141,0.00650024,
3832,0.0170898,0.00661621,
3834,0.00549316,0.00653076,
3836,-0.00915527,0.00658569,
3838,-0.00854492,0.00653687,
3840,-0.000610352,0.006427,
3842,0.0177002,0.00654907,
3844,-0.00976563,0.0064209,
3846,-0.00610352,0.00644531,
3848,-0.0115967,0.00638428,
3850,0.00854492,0.00643311,
3852,0.0164795,0.00652466,
3854,-0.0140381,0.00650635,
3856,0.0219727,0.00672607,
3858,0.00671387,0.00675049,
3860,-0.0164795,0.00685425,
3862,0.00610352,0.00678711,
3864,0.00488281,0.00675049,
3866,-0.0250244,0.00700073,
3868,-0.00366211,0.00702515,
3870,0,0.00700684,
3872,-0.0189209,0.00717773,
3874,-0.012207,0.00727539,
3876,-0.0140381,0.00740356,
3878,-0.0231934,0.00754395,
3880,-0.0189209,0.00772095,
3882,-0.00427246,0.00775146,
3884,-0.012207,0.0078186,
3886,-0.0109863,0.00780029,
3888,-0.0201416,0.00799561,
3890,-0.0164795,0.00811157,
3892,-0.00488281,0.00811157,
3894,0.00671387,0.0081543,
3896,0.00244141,0.00813599,
3898,-0.00488281,0.0081604,
3900,0.0140381,0.00823975,
3902,0.0134277,0.00834961,
3904,0.0140381,0.00847168,
3906,0.00427246,0.0085083,
3908,0.000610352,0.00847778,
3910,0.00671387,0.00842896,
3912,0.0164795,0.0085144,
3914,-0.0219727,0.00866089,
3916,-0.00610352,0.00870972,
3918,0.0219727,0.00889893,
3920,-0.0213623,0.00908813,
3922,-0.0115967,0.00913696,
3924,-0.0170898,0.009198,
3926,0.0268555,0.00942993,
3928,-0.00976563,0.00949707,
3930,-0.020752,0.00968628,
3932,-0.00976563,0.00975342,
3934,-0.00976563,0.0097168,
3936,0.00183105,0.00953979,
3938,-0.0256348,0.00978394,
3940,-0.00610352,0.00984497,
3942,-0.00732422,0.00985718,
3944,-0.0109863,0.00975952,
3946,-0.00610352,0.00979614,
3948,0.0134277,0.00982666,
3950,0.0109863,0.00979004,
3952,0.00244141,0.009729,
3954,0.0231934,0.00994873,
3956,0.022583,0.0101318,
3958,0.010376,0.0101929,
3960,-0.0177002,0.0103333,
3962,-0.0683594,0.0110168,
3964,0.0280762,0.0112915,
3966,-0.0109863,0.0113037,
3968,-0.0579834,0.011853,
3970,-0.0585938,0.0123779,
3972,-0.0158691,0.0124878,
3974,0.00854492,0.0124695,
3976,-0.00976563,0.0125061,
3978,-0.00854492,0.0125,
3980,-0.00732422,0.0125244,
3982,0.0189209,0.0126953,
3984,-0.00366211,0.0125977,
3986,0.00610352,0.0126038,
3988,-0.0354004,0.0129089,
3990,0.000610352,0.012915,
3992,-0.022583,0.0131348,
3994,-0.00793457,0.0131042,
3996,0.00915527,0.0130981,
3998,-0.0012207,0.0130432,
4000,-0.00793457,0.0129028,
4002,-0.00183105,0.012793,
4004,0.00427246,0.0127686,
4006,0.0152588,0.0128967,
4008,0.00915527,0.0128601,
4010,-0.00610352,0.0128784,
4012,-0.00732422,0.0128845,
4014,0.00549316,0.0127441,
4016,0.00305176,0.0127502,
4018,0.010376,0.012793,
4020,0.00549316,0.012793,
4022,0.0274658,0.0129822,
4024,0.0134277,0.0130493,
4026,-0.0238037,0.0132568,
4028,0.0421143,0.0135071,
4030,0.00244141,0.0135071,
4032,-0.0183105,0.0135193,
4034,-0.0012207,0.0134766,
4036,-0.0134277,0.0135193,
4038,-0.0305176,0.013739,
4040,-0.0457764,0.0141907,
4042,-0.0128174,0.0141418,
4044,0.0158691,0.0142029,
4046,-0.0262451,0.0144043,
4048,-0.0341797,0.0146301,
4050,0.0311279,0.014856,
4052,-0.00244141,0.0147156,
4054,-0.00976563,0.0146729,
4056,0.0012207,0.0144653,
4058,0.0189209,0.0145874,
4060,-0.012207,0.0145447,
4062,-0.0219727,0.0147034,
4064,0.00488281,0.0147034,
4066,-0.00366211,0.0144897,
4068,0.00488281,0.014502,
4070,-0.00427246,0.0145447,
4072,0.00183105,0.0143738,
4074,-0.010376,0.0143555,
4076,-0.0262451,0.0144775,
4078,-0.00488281,0.0142944,
4080,-0.000610352,0.0141113,
4082,-0.0305176,0.0143738,
4084,-0.0195313,0.014447,
4086,0.00671387,0.0144043,
4088,-0.0238037,0.0144409,
4090,0.0164795,0.0144409,
4092,0.0115967,0.0145081,
4094,-0.00244141,0.0144653,
4096,0.0170898,0.0146118,
4098,0.0177002,0.01474,
4100,-0.000610352,0.0146057,
4102,0.00793457,0.0145508,
4104,0.0158691,0.0145691,
4106,-0.00976563,0.014624,
4108,0.022583,0.0148437,
4110,-0.00244141,0.014801,
4112,-0.00732422,0.0147095,
4114,0.0128174,0.0146179,
4116,0.0146484,0.0147034,
4118,-0.00549316,0.0145386,
4120,-0.0170898,0.0144958,
4122,-0.00610352,0.0144409,
4124,0.0128174,0.0143982,
4126,0,0.0141296,
4128,-0.0213623,0.0142456,
4130,-0.000610352,0.0140442,
4132,0.00427246,0.0139893,
4134,0,0.0138916,
4136,-0.0140381,0.0140137,
4138,-0.022583,0.0139832,
4140,-0.0238037,0.0141602,
4142,0.00671387,0.0141541,
4144,-0.0140381,0.0141846,
4146,-0.0445557,0.0145691,
4148,0.010376,0.0145386,
4150,-0.0195313,0.014624,
4152,-0.00366211,0.0146362,
4154,0.00305176,0.0144348,
4156,-0.010376,0.0143127,
4158,0.00732422,0.0142822,
4160,0.00732422,0.0141785,
4162,0.00549316,0.0135498,
4164,-0.00305176,0.0132996,
4166,-0.00366211,0.0132263,
4168,0.00244141,0.0126709,
4170,-0.012207,0.012207,
4172,0.00549316,0.0121033,
4174,-0.0305176,0.012323,
4176,-0.00183105,0.0122437,
4178,-0.012207,0.0122803,
4180,-0.00183105,0.0122253,
4182,-0.00549316,0.0120911,
4184,-0.020752,0.012262,
4186,0.000610352,0.012207,
4188,-0.00915527,0.0119446,
4190,0.0164795,0.0121033,
4192,-0.00366211,0.0119141,
4194,-0.00854492,0.0119202,
4196,0.00793457,0.011908,
4198,-0.00671387,0.0119629,
4200,-0.00366211,0.0119202,
4202,0.0115967,0.0120178,
4204,0.0152588,0.0121277,
4206,0.00305176,0.0120056,
4208,0.00366211,0.0119507,
4210,-0.0311279,0.0122009,
4212,0.00854492,0.0122131,
4214,0.0305176,0.0124634,
4216,-0.0134277,0.0125671,
4218,-0.0164795,0.0126282,
4220,-0.00244141,0.0125977,
4222,-0.0134277,0.0124573,
4224,-0.010376,0.0124268,
4226,0.00915527,0.0122803,
4228,0,0.0118591,
4230,-0.00793457,0.0119141,
4232,-0.00305176,0.0117615,
4234,-0.00549316,0.0118042,
4236,-0.0292969,0.0119629,
4238,0.00915527,0.0117493,
4240,0.0213623,0.0115051,
4242,-0.0164795,0.0115417,
4244,-0.0494385,0.0118774,
4246,0.0109863,0.0117249,
4248,0.022583,0.0116089,
4250,-0.022583,0.0115234,
4252,-0.00610352,0.0115601,
4254,0.020752,0.0116699,
4256,-0.0012207,0.0116699,
4258,0.00305176,0.0115112,
4260,0.0305176,0.0116943,
4262,-0.0134277,0.0116089,
4264,-0.0128174,0.0116882,
4266,0.0128174,0.0117798,
4268,0.0128174,0.0118591,
4270,-0.0292969,0.0121094,
4272,-0.0195313,0.0122864,
4274,-0.0305176,0.0124878,
4276,0.0189209,0.0124146,
4278,-0.00610352,0.0124268,
4280,-0.0128174,0.0125488,
4282,-0.0134277,0.0123779,
4284,-0.00610352,0.0122437,
4286,-0.00854492,0.012262,
4288,0.0323486,0.0123474,
4290,-0.00976563,0.0122803,
4292,-0.022583,0.0123901,
4294,-0.012207,0.0124878,
4296,0.0115967,0.0124329,
4298,0.0183105,0.012439,
4300,-0.0170898,0.0126038,
4302,0.00427246,0.0125671,
4304,0.000610352,0.0124146,
4306,-0.0012207,0.0123291,
4308,-0.00183105,0.0121216,
4310,0.00366211,0.0121338,
4312,-0.00854492,0.012146,
4314,-0.00549316,0.0120728,
4316,-0.00671387,0.0119934,
4318,-0.00427246,0.0119812,
4320,0.00549316,0.0118652,
4322,-0.00732422,0.0118774,
4324,0.00976563,0.0118469,
4326,-0.0378418,0.0122253,
4328,0.000610352,0.0120178,
4330,0.032959,0.0123413,
4332,0.00244141,0.012323,
4334,-0.0152588,0.0124756,
4336,0.0244141,0.0125793,
4338,-0.0158691,0.0125122,
4340,-0.0146484,0.0124207,
4342,0.00854492,0.012439,
4344,0.00732422,0.0123718,
4346,-0.0238037,0.0121643,
4348,-0.0280762,0.0123413,
4350,-0.010376,0.0122498,
4352,-0.00732422,0.0122864,
4354,-0.00793457,0.0123352,
4356,0.000610352,0.0122375,
4358,-0.00427246,0.012207,
4360,0.00976563,0.0122314,
4362,-0.0189209,0.0123657,
4364,-0.00671387,0.0124023,
4366,0.00427246,0.0124084,
4368,-0.00732422,0.0124573,
4370,0.00671387,0.0124023,
4372,-0.0372314,0.0127197,
4374,0.0189209,0.0126038,
4376,-0.0170898,0.0127563,
4378,-0.0115967,0.0127502,
4380,0.00915527,0.0128235,
4382,-0.0158691,0.0129272,
4384,0.010376,0.0128235,
4386,-0.00976563,0.012915,
4388,0.00610352,0.0128845,
4390,-0.00549316,0.0127747,
4392,0.0012207,0.0127502,
4394,0.0152588,0.0128174,
4396,-0.00732422,0.0128113,
4398,-0.020752,0.0129517,
4400,-0.010376,0.0130188,
4402,0.00854492,0.0129883,
4404,-0.00610352,0.0128967,
4406,-0.0140381,0.0130066,
4408,-0.020752,0.0131775,
4410,-0.0146484,0.0130127,
4412,0.00427246,0.01297,
4414,-0.0128174,0.012793,
4416,0.00244141,0.0126831,
4418,-0.00976563,0.012616,
4420,-0.0109863,0.0127014,
4422,0.0140381,0.0127075,
4424,0.00183105,0.0126221,
4426,0.00549316,0.0125854,
4428,-0.0134277,0.0127197,
4430,0.00854492,0.0127258,
4432,-0.000610352,0.0127014,
4434,-0.00976563,0.0127441,
4436,0.00427246,0.0124939,
4438,-0.0115967,0.0125183,
4440,-0.0201416,0.0125061,
4442,-0.0170898,0.0125122,
4444,0.00793457,0.0120972,
4446,-0.0115967,0.0121033,
4448,-0.00427246,0.0119202,
4450,0.00305176,0.0117249,
4452,0,0.0116638,
4454,0.00671387,0.0115234,
4456,-0.00854492,0.0115967,
4458,0,0.0115662,
4460,-0.00915527,0.0113525,
4462,0.0152588,0.0113708,
4464,-0.0286865,0.0115295,
4466,0.000610352,0.0114075,
4468,-0.0323486,0.0116028,
4470,0.00671387,0.011377,
4472,-0.00732422,0.0112549,
4474,0.00488281,0.0109985,
4476,-0.0231934,0.0110413,
4478,-0.00793457,0.0110596,
4480,0.0537109,0.0114685,
4482,-0.00915527,0.0114258,
4484,-0.020752,0.0115723,
4486,-0.0134277,0.0116211,
4488,0.012207,0.0114197,
4490,0.00488281,0.0113708,
4492,-0.00671387,0.0112122,
4494,-0.0109863,0.0112,
4496,-0.0244141,0.0113281,
4498,0.0134277,0.0112793,
4500,0,0.0111084,
4502,-0.0286865,0.0113525,
4504,0.0140381,0.0114868,
4506,-0.012207,0.0115967,
4508,-0.00610352,0.0116394,
4510,-0.00854492,0.0116882,
4512,0,0.0116028,
4514,-0.0128174,0.011676,
4516,0.010376,0.0117126,
4518,0.0177002,0.0118469,
4520,0.000610352,0.0117981,
4522,-0.0360107,0.012085,
4524,0.00915527,0.0120789,
4526,0.0158691,0.0118591,
4528,0.0164795,0.0120178,
4530,-0.00854492,0.0117737,
4532,-0.0335693,0.012085,
4534,0.010376,0.0120361,
4536,0.03479,0.0121399,
4538,0.00732422,0.0120544,
4540,-0.00366211,0.0119446,
4542,0.0439453,0.0122986,
4544,0.0115967,0.0123413,
4546,-0.0549316,0.0126526,
4548,0.000610352,0.0123779,
4550,0.010376,0.0123779,
4552,-0.00305176,0.0123352,
4554,-0.0177002,0.0124329,
4556,-0.00244141,0.0124512,
4558,-0.0195313,0.0126038,
4560,0.0012207,0.0125183,
4562,0.0213623,0.0125427,
4564,0.0286865,0.0127625,
4566,-0.0195313,0.012915,
4568,0.00854492,0.0129272,
4570,0.00976563,0.0129578,
4572,-0.045166,0.0130371,
4574,-0.00427246,0.0128906,
4576,-0.00244141,0.0127441,
4578,-0.00366211,0.0126648,
4580,0,0.0125732,
4582,-0.0146484,0.012561,
4584,0.00915527,0.0125488,
4586,-0.0189209,0.0126404,
4588,-0.0128174,0.0127075,
4590,0.0189209,0.0128418,
4592,-0.0183105,0.0130127,
4594,-0.0299072,0.0131592,
4596,-0.0305176,0.0133911,
4598,0.00610352,0.0132446,
4600,-0.0219727,0.0133606,
4602,-0.00305176,0.0133057,
4604,0.0128174,0.0133728,
4606,-0.0195313,0.0134277,
4608,-0.0012207,0.0132324,
4610,-0.00976563,0.0131836,
4612,0.00305176,0.0131714,
4614,-0.0183105,0.0132263,
4616,-0.0170898,0.0133728,
4618,0.00854492,0.0133606,
4620,0.0012207,0.0132629,
4622,-0.0219727,0.0133423,
4624,0.000610352,0.0133301,
4626,-0.0244141,0.0135193,
4628,-0.0762939,0.0141479,
4630,0.0909424,0.0149719,
4632,-0.0195313,0.0151611,
4634,-0.0286865,0.0153503,
4636,-0.0012207,0.0153198,
4638,0.00671387,0.015271,
4640,0.020752,0.0152771,
4642,0.0152588,0.0152588,
4644,0.0231934,0.0154114,
4646,-0.0012207,0.0153076,
4648,-0.00366211,0.0153015,
4650,0,0.015271,
4652,0.000610352,0.0152771,
4654,-0.0219727,0.0154297,
4656,0.0415039,0.0157593,
4658,0.000610352,0.0157654,
4660,-0.0213623,0.0158875,
4662,-0.020752,0.0159424,
4664,-0.0158691,0.0158142,
4666,0.00427246,0.0158508,
4668,0.0170898,0.0156982,
4670,0.00488281,0.0156799,
4672,-0.0134277,0.015741,
4674,0.000610352,0.0156982,
4676,0,0.0154663,
4678,0.032959,0.0157166,
4680,-0.0231934,0.0154114,
4682,0.0128174,0.015448,
4684,0.00549316,0.0152954,
4686,-0.0152588,0.0153137,
4688,-0.0256348,0.015448,
4690,-0.0311279,0.0157104,
4692,0.00976563,0.015741,
4694,-0.0268555,0.0158997,
4696,-0.0439453,0.016095,
4698,-0.0128174,0.0160889,
4700,0.0183105,0.016272,
4702,-0.043335,0.0164185,
4704,-0.0170898,0.016449,
4706,0.0494385,0.0168213,
4708,-0.00366211,0.0167969,
4710,-0.012207,0.0168335,
4712,0.00244141,0.0168579,
4714,0.00244141,0.0167542,
4716,-0.0115967,0.0167664,
4718,0.0128174,0.0167175,
4720,-0.00976563,0.0168091,
4722,-0.00427246,0.0164917,
4724,-0.0109863,0.01651,
4726,-0.00305176,0.0163818,
4728,-0.0189209,0.0164063,
4730,-0.0213623,0.0165344,
4732,0.0292969,0.0164917,
4734,0.00427246,0.0164307,
4736,-0.00671387,0.0161499,
4738,-0.0115967,0.0161926,
4740,0.00976563,0.0162537,
4742,0.0128174,0.0159424,
4744,-0.0012207,0.0158386,
4746,-0.020752,0.0154968,
4748,0.0250244,0.015741,
4750,0.0140381,0.0157776,
4752,-0.0494385,0.0162415,
4754,0.022583,0.0162903,
4756,-0.020752,0.0164734,
4758,0.00976563,0.0163757,
4760,0.0140381,0.0165039,
4762,-0.0183105,0.0164734,
4764,-0.010376,0.0162903,
4766,0.0354004,0.016449,
4768,-0.0305176,0.0166687,
4770,-0.012207,0.0166931,
4772,0.0170898,0.0164124,
4774,0.0134277,0.0165039,
4776,-0.0158691,0.0166382,
4778,-0.0445557,0.0170471,
4780,-0.0189209,0.0172363,
4782,-0.0231934,0.0173218,
4784,-0.0695801,0.017926,
4786,0.00915527,0.0178284,
4788,-0.0158691,0.0178589,
4790,-0.0256348,0.017926,
4792,-0.00793457,0.0178223,
4794,0.00183105,0.0175415,
4796,-0.00732422,0.0173096,
4798,0.0134277,0.0173828,
4800,-0.00915527,0.0172546,
4802,0.0231934,0.0174561,
4804,-0.00915527,0.0174194,
4806,-0.00915527,0.0173157,
4808,0.00244141,0.0173279,
4810,-0.0323486,0.0175537,
4812,-0.0231934,0.0177551,
4814,0.00976563,0.0176697,
4816,-0.00366211,0.0175354,
4818,-0.032959,0.0177795,
4820,-0.0140381,0.0179077,
4822,-0.00732422,0.0177612,
4824,0.00549316,0.0178101,
4826,0.0152588,0.0177185,
4828,-0.0134277,0.0170898,
4830,-0.00671387,0.0162476,
4832,0.0189209,0.0162415,
4834,0.00915527,0.0160461,
4836,0.00549316,0.0160889,
4838,0.00427246,0.0160645,
4840,-0.00915527,0.0159485,
4842,0.00732422,0.0158691,
4844,0.00732422,0.0157104,
4846,0.0164795,0.015863,
4848,-0.0292969,0.0161194,
4850,-0.0115967,0.0162354,
4852,0.00732422,0.0163025,
4854,-0.00549316,0.0161377,
4856,-0.022583,0.0159485,
4858,-0.00305176,0.0159729,
4860,-0.0134277,0.0158936,
4862,0.0189209,0.0158752,
4864,-0.0299072,0.0160156,
4866,0.0244141,0.016217,
4868,-0.0201416,0.0162476,
4870,0.00244141,0.0162231,
4872,0.0128174,0.016217,
4874,-0.0311279,0.0165222,
4876,-0.00244141,0.0165466,
4878,-0.00671387,0.0162842,
4880,0.000610352,0.0160583,
4882,-0.0115967,0.0160461,
4884,-0.0164795,0.016156,
4886,-0.0012207,0.0160156,
4888,-0.045166,0.0162109,
4890,-0.0012207,0.0159119,
4892,-0.0256348,0.0160706,
4894,0.0305176,0.0161072,
4896,-0.0323486,0.0159912,
4898,-0.032959,0.0161926,
4900,0.000610352,0.0160156,
4902,0.00366211,0.0156189,
4904,-0.00793457,0.0155273,
4906,0,0.015033,
4908,0.0012207,0.0150085,
4910,-0.032959,0.0152161,
4912,0.00732422,0.0152649,
4914,-0.00671387,0.0153076,
4916,0.0109863,0.0153015,
4918,0,0.0151733,
4920,-0.0213623,0.0152893,
4922,-0.00305176,0.0152771,
4924,-0.00305176,0.0151978,
4926,0.0146484,0.0153137,
4928,-0.0152588,0.0152771,
4930,-0.000610352,0.0150696,
4932,0.010376,0.0148804,
4934,0.00427246,0.0148804,
4936,0.0115967,0.0149292,
4938,-0.00671387,0.0148804,
4940,0.0152588,0.0149353,
4942,-0.0012207,0.0148193,
4944,-0.0219727,0.0150269,
4946,-0.0146484,0.0149658,
4948,-0.00976563,0.0148132,
4950,-0.00610352,0.0147339,
4952,-0.00793457,0.0143188,
4954,0.00732422,0.0141663,
4956,-0.0372314,0.0143311,
4958,-0.00793457,0.0143127,
4960,0.0366211,0.0145386,
4962,0.0152588,0.0145081,
4964,-0.00183105,0.0144226,
4966,0.00305176,0.0140991,
4968,-0.0262451,0.0140564,
4970,0.00793457,0.0140137,
4972,-0.00244141,0.0138672,
4974,-0.0390625,0.0141235,
4976,0.022583,0.0141907,
4978,-0.0372314,0.0141174,
4980,-0.0439453,0.0143677,
4982,0.0115967,0.0142517,
4984,0.00976563,0.0136536,
4986,-0.032959,0.0138916,
4988,0.00305176,0.0137634,
4990,-0.0317383,0.0138245,
4992,0.0128174,0.0138733,
4994,-0.00610352,0.013916,
4996,-0.010376,0.0139465,
4998,-0.0152588,0.0139648,
5000,0.0195313,0.0140686,
5002,0.00732422,0.0139099,
5004,-0.0115967,0.0139343,
5006,0.0244141,0.0140869,
5008,-0.0183105,0.0142456,
5010,-0.0146484,0.0140686,
5012,0.00244141,0.0138611,
5014,-0.00305176,0.0137939,
5016,-0.022583,0.0139832,
5018,-0.0274658,0.0139282,
5020,-0.0231934,0.0140198,
5022,0.00366211,0.0139832,
5024,-0.00610352,0.0139893,
5026,-0.00183105,0.013855,
5028,0.00488281,0.0137695,
5030,0.0012207,0.0137146,
5032,0.000610352,0.0135315,
5034,-0.000610352,0.013446,
5036,0.0140381,0.0135315,
5038,-0.0219727,0.0137085,
5040,-0.00366211,0.0136536,
5042,-0.0140381,0.0137207,
5044,0.0140381,0.0137878,
5046,-0.00305176,0.0136536,
5048,-0.0372314,0.0137329,
5050,-0.00244141,0.0136414,
5052,-0.0012207,0.0135803,
5054,0.00793457,0.0136047,
5056,-0.0012207,0.0133911,
5058,0.00549316,0.0134155,
5060,-0.0128174,0.0134094,
5062,0.00976563,0.0133179,
5064,-0.00427246,0.0130615,
5066,0.0415039,0.0132324,
5068,-0.0134277,0.0131653,
5070,-0.0164795,0.0133057,
5072,-0.00305176,0.013208,
5074,0.0231934,0.0131287,
5076,-0.0415039,0.0135193,
5078,0,0.0134521,
5080,-0.020752,0.0136536,
5082,0.0158691,0.0136963,
5084,-0.0250244,0.0137817,
5086,-0.0421143,0.0141907,
5088,-0.010376,0.0138428,
5090,-0.0317383,0.0141479,
5092,0.000610352,0.0138977,
5094,0.00793457,0.0136719,
5096,-0.0177002,0.0135254,
5098,-0.0195313,0.0133911,
5100,-0.0183105,0.0135681,
5102,0.00549316,0.0135864,
5104,-0.00732422,0.0135803,
5106,-0.0213623,0.0137939,
5108,0.00610352,0.0138428,
5110,0.00671387,0.0135803,
5112,-0.0183105,0.0136902,
5114,-0.00549316,0.013678,
5116,0.0115967,0.0136841,
5118,-0.0146484,0.0138306,
5120,0.0366211,0.0139832,
5122,0.00915527,0.0140442,
5124,-0.0231934,0.0142456,
5126,-0.010376,0.0142029,
5128,0.0286865,0.0143372,
5130,-0.0128174,0.0144592,
5132,-0.0128174,0.0144836,
5134,0.00244141,0.0144653,
5136,-0.0183105,0.0145325,
5138,0.0415039,0.0148804,
5140,-0.0366211,0.015094,
5142,0.0128174,0.01521,
5144,0.00854492,0.0150757,
5146,0.00671387,0.0149963,
5148,-0.0128174,0.0150269,
5150,0.000610352,0.0149719,
5152,0.0195313,0.0150879,
5154,0.0158691,0.0151733,
5156,-0.0146484,0.0149475,
5158,0.0195313,0.0150635,
5160,0.0305176,0.0150024,
5162,0.00793457,0.0149292,
5164,-0.0335693,0.0152466,
5166,-0.0189209,0.0154053,
5168,0.00183105,0.0151611,
5170,-0.00915527,0.0151733,
5172,-0.0317383,0.0154663,
5174,-0.0592041,0.0156677,
5176,-0.00427246,0.0154846,
5178,-0.000610352,0.0151184,
5180,-0.00305176,0.0147095,
5182,-0.0561523,0.015155,
5184,0.0341797,0.0153992,
5186,-0.0219727,0.0152893,
5188,-0.0134277,0.0153931,
5190,0.00183105,0.015094,
5192,-0.0177002,0.0151428,
5194,0.00915527,0.0151733,
5196,-0.0170898,0.0152405,
5198,0.0128174,0.0152161,
5200,0.00854492,0.0151062,
5202,-0.00976563,0.0151306,
5204,0.00671387,0.0150818,
5206,-0.00732422,0.0149109,
5208,-0.0128174,0.014856,
5210,0.0219727,0.0149292,
5212,-0.00915527,0.0149963,
5214,-0.020752,0.0151733,
5216,-0.0109863,0.0150574,
5218,-0.0201416,0.0149841,
5220,-0.0195313,0.0149475,
5222,-0.0262451,0.0151733,
5224,-0.0585938,0.0156982,
5226,0.0323486,0.0160034,
5228,-0.0158691,0.0161133,
5230,-0.000610352,0.0161072,
5232,-0.00488281,0.0161499,
5234,0.00183105,0.0161621,
5236,0.000610352,0.0160278,
5238,0.0280762,0.0160889,
5240,0.000610352,0.0160583,
5242,-0.0262451,0.0161804,
5244,0.0268555,0.0163086,
5246,0.00305176,0.0163086,
5248,-0.00915527,0.0160278,
5250,0.0250244,0.0162537,
5252,-0.00732422,0.0163147,
5254,-0.00305176,0.0162659,
5256,0.0219727,0.0164734,
5258,-0.0280762,0.0166992,
5260,0.00244141,0.0165955,
5262,-0.0177002,0.0166748,
5264,-0.0384521,0.0170166,
5266,0.00244141,0.016626,
5268,-0.0128174,0.0166199,
5270,0.022583,0.0166809,
5272,-0.0183105,0.0168335,
5274,-0.0146484,0.016748,
5276,-0.0195313,0.0165283,
5278,0.0292969,0.0168213,
5280,0.00915527,0.0167053,
5282,-0.0286865,0.0168335,
5284,-0.0109863,0.0166931,
5286,0.0170898,0.0164429,
5288,-0.0262451,0.0166016,
5290,-0.0152588,0.0164368,
5292,0.00427246,0.0164734,
5294,-0.00854492,0.0164795,
5296,-0.0250244,0.0165527,
5298,-0.0177002,0.0165344,
5300,-0.0201416,0.0165527,
5302,-0.0213623,0.0167114,
5304,-0.00854492,0.0167236,
5306,-0.0262451,0.0167725,
5308,0.012207,0.0168335,
5310,0,0.0167664,
5312,-0.0238037,0.0168213,
5314,0.0274658,0.017041,
5316,-0.0378418,0.0173035,
5318,-0.00183105,0.0171753,
5320,0.00915527,0.0169006,
5322,-0.0244141,0.0170532,
5324,-0.012207,0.0169434,
5326,-0.00183105,0.0168579,
5328,-0.010376,0.0166748,
5330,-0.00244141,0.016571,
5332,-0.0506592,0.0169495,
5334,0.0280762,0.0172058,
5336,-0.00854492,0.0171082,
5338,-0.00244141,0.0167175,
5340,-0.00732422,0.0164246,
5342,0.00427246,0.0163391,
5344,-0.0109863,0.0163635,
5346,-0.00183105,0.0163147,
5348,0.00427246,0.0162292,
5350,-0.0012207,0.0162354,
5352,0.00244141,0.0160645,
5354,-0.0128174,0.0160339,
5356,-0.00305176,0.015918,
5358,-0.010376,0.0158264,
5360,0.00183105,0.0155396,
5362,-0.0170898,0.0156311,
5364,0.00427246,0.0153381,
5366,-0.0415039,0.015564,
5368,0.0189209,0.0157349,
5370,-0.00976563,0.015741,
5372,-0.0305176,0.0157288,
5374,0.0311279,0.015448,
5376,0.0128174,0.0155334,
5378,0.00244141,0.0155518,
5380,-0.0189209,0.0157104,
5382,0.0244141,0.0153931,
5384,-0.00244141,0.0150757,
5386,-0.022583,0.0150818,
5388,-0.0146484,0.015094,
5390,-0.0183105,0.0152588,
5392,-0.0134277,0.0152161,
5394,-0.00244141,0.0151489,
5396,-0.0323486,0.0153015,
5398,0.00549316,0.0152283,
5400,-0.0164795,0.0153076,
5402,0.0164795,0.0153748,
5404,-0.00854492,0.0153931,
5406,0.00366211,0.0153564,
5408,-0.00915527,0.0153198,
5410,0.00549316,0.015155,
5412,0.00732422,0.0151367,
5414,-0.0183105,0.0151123,
5416,0.0244141,0.0152466,
5418,-0.010376,0.0151489,
5420,-0.0152588,0.0151062,
5422,0.0152588,0.0149963,
5424,-0.0305176,0.0147156,
5426,0.00732422,0.0144653,
5428,-0.000610352,0.0143127,
5430,-0.0274658,0.0145813,
5432,0.0317383,0.0148499,
5434,-0.0177002,0.0150085,
5436,-0.0109863,0.0151123,
5438,-0.00183105,0.0148499,
5440,0.0134277,0.014978,
5442,-0.00915527,0.0148071,
5444,-0.0250244,0.0147888,
5446,-0.00976563,0.014856,
5448,0.00671387,0.0148315,
5450,-0.012207,0.0147034,
5452,-0.010376,0.0147339,
5454,-0.00488281,0.0147522,
5456,-0.0158691,0.0146912,
5458,-0.022583,0.0146362,
5460,0.00427246,0.0146545,
5462,0.012207,0.0145996,
5464,-0.000610352,0.0142212,
5466,-0.010376,0.0143005,
5468,-0.0164795,0.0143372,
5470,0.045166,0.014563,
5472,0.012207,0.014502,
5474,-0.0305176,0.0146606,
5476,0.00732422,0.0145386,
5478,0.010376,0.0143494,
5480,-0.0134277,0.0143921,
5482,-0.0213623,0.0143188,
5484,-0.000610352,0.0142151,
5486,-0.0134277,0.0141785,
5488,-0.012207,0.0140381,
5490,-0.0158691,0.0140442,
5492,-0.0012207,0.0140137,
5494,-0.00976563,0.0140259,
5496,-0.00305176,0.0138062,
5498,-0.00671387,0.0136963,
5500,-0.0115967,0.0136108,
5502,0.020752,0.0136047,
5504,-0.0189209,0.0137085,
5506,-0.00610352,0.0135071,
5508,-0.000610352,0.0133911,
5510,-0.03479,0.013739,
5512,0.0299072,0.0138,
5514,0.00488281,0.0135742,
5516,-0.0317383,0.0135132,
5518,0.00854492,0.0135803,
5520,-0.0146484,0.0136353,
5522,-0.00549316,0.013446,
5524,0.0012207,0.0133362,
5526,0.00976563,0.0134155,
5528,-0.0238037,0.0135498,
5530,-0.00610352,0.0135864,
5532,-0.0213623,0.0132935,
5534,0.00427246,0.0130554,
5536,-0.0012207,0.0129822,
5538,-0.010376,0.0130615,
5540,-0.00549316,0.0130432,
5542,0.00976563,0.0130981,
5544,-0.00244141,0.0130127,
5546,-0.00793457,0.0130737,
5548,0.00427246,0.0130737,
5550,0.0128174,0.0131897,
5552,-0.0189209,0.0133545,
5554,-0.0134277,0.0133606,
5556,0.0262451,0.0135925,
5558,-0.0189209,0.013678,
5560,-0.010376,0.0137634,
5562,-0.0164795,0.0137573,
5564,-0.00610352,0.0137756,
5566,0.0177002,0.0135376,
5568,-0.0128174,0.0134766,
5570,0,0.0133789,
5572,-0.00366211,0.0131104,
5574,-0.00488281,0.0128479,
5576,-0.0012207,0.0127319,
5578,0.00671387,0.0127747,
5580,-0.0146484,0.0127319,
5582,-0.0115967,0.0126038,
5584,-0.00732422,0.0126526,
5586,-0.0109863,0.0125366,
5588,-0.0140381,0.0125305,
5590,0.00305176,0.0123779,
5592,-0.0012207,0.0122559,
5594,-0.020752,0.012439,
5596,-0.000610352,0.0121216,
5598,0.00488281,0.0121155,
5600,0.010376,0.0120544,
5602,-0.0250244,0.0121399,
5604,-0.00671387,0.0121216,
5606,0.00793457,0.0121643,
5608,0.00427246,0.0121155,
5610,-0.00427246,0.0121033,
5612,0.00183105,0.0120483,
5614,-0.00427246,0.011908,
5616,0.0378418,0.0120422,
5618,-0.0195313,0.0121338,
5620,-0.020752,0.0121887,
5622,-0.00976563,0.0121338,
5624,0.012207,0.0119507,
5626,-0.00488281,0.0119263,
5628,-0.020752,0.0121277,
5630,-0.0170898,0.0120239,
5632,-0.00610352,0.0117676,
5634,-0.0238037,0.0118286,
5636,0,0.0117188,
5638,0.00793457,0.0117798,
5640,-0.00366211,0.0116821,
5642,0.00976563,0.0116882,
5644,-0.0109863,0.0115479,
5646,-0.010376,0.011554,
5648,-0.0238037,0.0117249,
5650,0.0115967,0.0117188,
5652,-0.00427246,0.0116577,
5654,-0.0012207,0.0116211,
5656,-0.0238037,0.0117004,
5658,-0.00793457,0.011554,
5660,-0.00610352,0.0115723,
5662,-0.012207,0.0115723,
5664,0.0201416,0.0117676,
5666,-0.0219727,0.0118835,
5668,-0.0164795,0.0118835,
5670,0.00610352,0.0114929,
5672,-0.00854492,0.0114563,
5674,0.00366211,0.0111877,
5676,-0.00976563,0.0112122,
5678,0.0170898,0.0112793,
5680,0.00427246,0.0111877,
5682,0.00305176,0.0110046,
5684,-0.0012207,0.0110107,
5686,-0.000610352,0.0108826,
5688,0.00244141,0.0107849,
5690,-0.0140381,0.0107666,
5692,-0.00488281,0.0108032,
5694,-0.000610352,0.0107117,
5696,-0.0164795,0.0108459,
5698,-0.0134277,0.0109131,
5700,-0.0109863,0.010907,
5702,-0.0115967,0.0108154,
5704,-0.000610352,0.0106323,
5706,-0.000610352,0.0105774,
5708,-0.00854492,0.0106567,
5710,-0.0170898,0.0104797,
5712,-0.0177002,0.0103577,
5714,0.0360107,0.0106689,
5716,-0.0335693,0.0106873,
5718,-0.00488281,0.0106506,
5720,-0.00427246,0.0105469,
5722,-0.0012207,0.0105042,
5724,-0.0189209,0.0106812,
5726,0.00915527,0.010675,
5728,0.00732422,0.0105103,
5730,-0.0256348,0.0107056,
5732,-0.0134277,0.0106262,
5734,0.00915527,0.010675,
5736,-0.0115967,0.0107788,
5738,0.00305176,0.0107056,
5740,0.00549316,0.0107056,
5742,-0.0189209,0.0107971,
5744,-0.0183105,0.0109558,
5746,-0.0152588,0.0110291,
5748,-0.00305176,0.0110168,
5750,-0.0177002,0.0110657,
5752,0.000610352,0.0108826,
5754,-0.00183105,0.0107666,
5756,-0.03479,0.0108521,
5758,-0.0189209,0.0108521,
5760,0.0189209,0.0109375,
5762,0.00366211,0.0108093,
5764,-0.00366211,0.0107849,
5766,-0.0317383,0.0109253,
5768,0.0244141,0.0110413,
5770,-0.0366211,0.0114075,
5772,0.00610352,0.0114319,
5774,-0.00488281,0.0114319,
5776,0.00366211,0.0114563,
5778,-0.00305176,0.0114197,
5780,0.00427246,0.0113159,
5782,-0.0128174,0.0113281,
5784,0.00244141,0.0112793,
5786,-0.010376,0.0112732,
5788,-0.00610352,0.0111938,
5790,-0.00793457,0.0112427,
5792,-0.000610352,0.0112366,
5794,-0.0518799,0.0115479,
5796,-0.012207,0.0116638,
5798,-0.0177002,0.011792,
5800,-0.0158691,0.0118469,
5802,-0.00366211,0.0116333,
5804,-0.0268555,0.0118347,
5806,-0.0231934,0.0119873,
5808,0.00366211,0.0119812,
5810,-0.00793457,0.0120178,
5812,-0.0177002,0.0121765,
5814,0.00305176,0.0121643,
5816,-0.0164795,0.0119507,
5818,-0.0109863,0.0118652,
5820,0.00854492,0.0117432,
5822,0.00183105,0.0116638,
5824,-0.0158691,0.0117004,
5826,-0.00854492,0.0117371,
5828,-0.00427246,0.0115723,
5830,-0.00915527,0.0114929,
5832,0.0152588,0.0115845,
5834,-0.00732422,0.0114197,
5836,-0.00549316,0.0114746,
5838,-0.0140381,0.0115356,
5840,0.0256348,0.0117554,
5842,0.0146484,0.0118042,
5844,0.00427246,0.0117371,
5846,0.0152588,0.0117859,
5848,-0.00305176,0.0115784,
5850,0.0274658,0.0117371,
5852,-0.00976563,0.011792,
5854,-0.0354004,0.0121338,
5856,0.0213623,0.0121094,
5858,-0.0109863,0.0121399,
5860,-0.0244141,0.012323,
5862,-0.0201416,0.0124023,
5864,-0.012207,0.012323,
5866,-0.0170898,0.0122742,
5868,-0.0213623,0.012323,
5870,-0.0201416,0.0124634,
5872,0.00732422,0.0124512,
5874,-0.0280762,0.0126953,
5876,-0.0128174,0.0127258,
5878,0.00427246,0.0125977,
5880,-0.00671387,0.0126221,
5882,-0.00366211,0.0126282,
5884,-0.00244141,0.0126404,
5886,0.0109863,0.0127441,
5888,0.00366211,0.0127563,
5890,-0.0146484,0.0127625,
5892,-0.010376,0.0128174,
5894,0.00305176,0.0128418,
5896,-0.0189209,0.0128662,
5898,-0.0195313,0.0129272,
5900,0.0128174,0.0129456,
5902,-0.0183105,0.0130127,
5904,-0.0115967,0.0131226,
5906,-0.00671387,0.0131836,
5908,-0.010376,0.0132019,
5910,0.00427246,0.0130737,
5912,-0.0109863,0.0130066,
5914,-0.0158691,0.0128052,
5916,-0.00793457,0.0125488,
5918,0.0115967,0.012616,
5920,-0.012207,0.0126953,
5922,-0.0262451,0.0129456,
5924,-0.00305176,0.0127869,
5926,0.012207,0.0128174,
5928,0.0262451,0.0130066,
5930,-0.00732422,0.0128235,
5932,-0.00732422,0.0127625,
5934,-0.0128174,0.0127991,
5936,0.0128174,0.0128113,
5938,-0.00549316,0.0128357,
5940,-0.0244141,0.0130249,
5942,0.00854492,0.0129211,
5944,-0.0146484,0.0128845,
5946,-0.0323486,0.0130554,
5948,-0.00183105,0.0130432,
5950,-0.0109863,0.0129761,
5952,0.010376,0.0130737,
5954,0.0109863,0.0131653,
5956,-0.00305176,0.0128479,
5958,-0.0170898,0.0128296,
5960,0.0274658,0.012915,
5962,0.0115967,0.0129944,
5964,0.00366211,0.0129944,
5966,-0.000610352,0.0126831,
5968,0.0115967,0.0125549,
5970,-0.0195313,0.012384,
5972,0.00305176,0.0123535,
5974,-0.00549316,0.0123596,
5976,-0.022583,0.0125488,
5978,-0.00366211,0.0125549,
5980,-0.00671387,0.0125793,
5982,-0.0354004,0.0128052,
5984,-0.012207,0.0129028,
5986,0.0170898,0.01297,
5988,-0.0115967,0.0130249,
5990,-0.0231934,0.0131775,
5992,0.00610352,0.0132324,
5994,-0.0109863,0.0128235,
5996,-0.00976563,0.0127991,
5998,-0.0140381,0.0127625,
6000,-0.0152588,0.0127563,
6002,-0.00793457,0.0127991,
6004,-0.0183105,0.0127136,
6006,-0.010376,0.0125854,
6008,0.00366211,0.0125854,
6010,-0.010376,0.0126099,
6012,-0.0274658,0.0127075,
6014,0.00549316,0.0127319,
6016,0.0415039,0.0129822,
6018,-0.0378418,0.0132507,
6020,-0.0170898,0.0133362,
6022,0.0164795,0.0134827,
6024,0.00854492,0.0134094,
6026,-0.0177002,0.013501,
6028,-0.00305176,0.0134888,
6030,0,0.0133972,
6032,-0.00488281,0.0132935,
6034,0.0177002,0.0133972,
6036,0.0305176,0.0136475,
6038,-0.0372314,0.0138794,
6040,0.0128174,0.0137512,
6042,0.0372314,0.0139771,
6044,-0.0231934,0.0141663,
6046,0.0439453,0.0144531,
6048,-0.0219727,0.0146423,
6050,-0.0012207,0.0143799,
6052,-0.00183105,0.0143005,
6054,-0.0335693,0.0142822,
6056,0.00183105,0.0140869,
6058,-0.00366211,0.0140137,
6060,-0.00732422,0.0138428,
6062,-0.0164795,0.0138062,
6064,-0.0201416,0.0138855,
6066,-0.020752,0.0139221,
6068,-0.0177002,0.0138855,
6070,0.010376,0.0137878,
6072,-0.0158691,0.0138733,
6074,0.0189209,0.0137817,
6076,-0.0274658,0.0139282,
6078,-0.0128174,0.0140137,
6080,-0.0109863,0.0140564,
6082,-0.00610352,0.0140808,
6084,-0.00732422,0.0141296,
6086,0.000610352,0.0140259,
6088,-0.0231934,0.0142212,
6090,-0.0292969,0.0143677,
6092,-0.0128174,0.0143921,
6094,-0.00305176,0.0143921,
6096,-0.00854492,0.0142883,
6098,0.0012207,0.0141052,
6100,-0.00671387,0.0140442,
6102,-0.0189209,0.0140503,
6104,-0.00671387,0.0140015,
6106,0.03479,0.0142822,
6108,0.0408936,0.0145874,
6110,0.00488281,0.0145935,
6112,0.0158691,0.0146423,
6114,-0.0372314,0.014856,
6116,0.0250244,0.0150269,
6118,0.0482178,0.0153931,
6120,-0.0341797,0.0156128,
6122,-0.0244141,0.0155945,
6124,-0.00366211,0.0156006,
6126,-0.00488281,0.0155273,
6128,-0.0567627,0.0158325,
6130,-0.0280762,0.01604,
6132,0,0.0159668,
6134,-0.0128174,0.0159668,
6136,-0.0286865,0.0161255,
6138,-0.0299072,0.0163696,
6140,-0.00732422,0.0161987,
6142,0.0183105,0.0162964,
6144,-0.045166,0.0166016,
6146,-0.00427246,0.0163208,
6148,0.0256348,0.0165588,
6150,0.0134277,0.0165833,
6152,-0.0512695,0.0169922,
6154,-0.0134277,0.0170166,
6156,0.0164795,0.0171509,
6158,-0.0177002,0.017157,
6160,0.00305176,0.0169128,
6162,-0.0231934,0.0170288,
6164,0.00854492,0.0170776,
6166,-0.0231934,0.0173035,
6168,-0.0115967,0.0173035,
6170,0.00549316,0.0171631,
6172,0.022583,0.0173584,
6174,0.0238037,0.0175415,
6176,-0.0311279,0.017627,
6178,0.0134277,0.0177246,
6180,0.0146484,0.017804,
6182,-0.00183105,0.0174683,
6184,0.0128174,0.0174744,
6186,-0.0170898,0.0174744,
6188,-0.0146484,0.0175049,
6190,0.00488281,0.0173218,
6192,-0.0244141,0.0175049,
6194,-0.00244141,0.0174194,
6196,0.00610352,0.0173828,
6198,-0.0280762,0.0175232,
6200,-0.00183105,0.0173889,
6202,0.00488281,0.0173584,
6204,-0.00793457,0.0172546,
6206,0.00610352,0.0172119,
6208,0.00366211,0.0172119,
6210,0.0274658,0.0173828,
6212,0.00976563,0.0172058,
6214,-0.0256348,0.0174072,
6216,0.0238037,0.0172302,
6218,0,0.0168518,
6220,-0.000610352,0.016687,
6222,-0.00732422,0.0165955,
6224,-0.0280762,0.0167908,
6226,-0.0189209,0.016803,
6228,0.0305176,0.0170776,
6230,-0.0500488,0.0175781,
6232,-0.0317383,0.0178467,
6234,-0.0134277,0.017804,
6236,0.0146484,0.0176453,
6238,-0.0189209,0.0174622,
6240,-0.0152588,0.0174866,
6242,-0.0512695,0.017627,
6244,-0.0152588,0.0175476,
6246,-0.00671387,0.0171753,
6248,-0.00671387,0.0170227,
6250,-0.00732422,0.0170837,
6252,-0.00427246,0.0171082,
6254,-0.0164795,0.0169373,
6256,-0.0140381,0.0170593,
6258,-0.00976563,0.0171204,
6260,0,0.0170471,
6262,-0.00610352,0.0169434,
6264,0.00610352,0.016803,
6266,-0.0128174,0.0167236,
6268,-0.00976563,0.0166443,
6270,-0.00183105,0.0165588,
6272,-0.000610352,0.0164063,
6274,0.000610352,0.0162231,
6276,-0.0189209,0.0161377,
6278,0.00854492,0.016095,
6280,-0.00183105,0.0160034,
6282,-0.00305176,0.0159729,
6284,0.0012207,0.0159119,
6286,0.0128174,0.0160339,
6288,0.0274658,0.0160767,
6290,0.00793457,0.015863,
6292,-0.0274658,0.0160095,
6294,0.0158691,0.0161377,
6296,0.00610352,0.0161133,
6298,-0.00976563,0.0161987,
6300,0.00549316,0.0161865,
6302,-0.0213623,0.0162109,
6304,-0.0256348,0.0164001,
6306,0.00183105,0.0160706,
6308,-0.00915527,0.0157532,
6310,-0.0268555,0.0159729,
6312,0.0012207,0.0158264,
6314,-0.020752,0.0156616,
6316,-0.0146484,0.0155579,
6318,-0.00488281,0.0151245,
6320,-0.0152588,0.0149353,
6322,-0.00976563,0.0147888,
6324,0.010376,0.014856,
6326,0.00976563,0.0149048,
6328,-0.0115967,0.0144531,
6330,-0.0115967,0.0142883,
6332,0.00915527,0.0143799,
6334,0.00488281,0.0143005,
6336,-0.00915527,0.0141052,
6338,-0.0115967,0.0139221,
6340,-0.00610352,0.0139099,
6342,-0.00183105,0.0137451,
6344,-0.00183105,0.0133118,
6346,-0.00427246,0.0133118,
6348,0.00183105,0.0130737,
6350,0.00427246,0.0129822,
6352,-0.0213623,0.0126831,
6354,0.0128174,0.012677,
6356,-0.0012207,0.0125244,
6358,0.0146484,0.0124939,
6360,-0.0219727,0.0126831,
6362,-0.00610352,0.0125122,
6364,0.0158691,0.0125854,
6366,0.00793457,0.0124329,
6368,-0.0146484,0.0124634,
6370,-0.0177002,0.0125854,
6372,0.00366211,0.0123962,
6374,-0.00366211,0.0121948,
6376,-0.00976563,0.0119812,
6378,-0.00854492,0.0119324,
6380,-0.00976563,0.0118835,
6382,-0.000610352,0.0118713,
6384,-0.00427246,0.0117859,
6386,0,0.011615,
6388,0.0115967,0.0115845,
6390,0.00427246,0.0115784,
6392,-0.0146484,0.0114807,
6394,-0.0140381,0.0115967,
6396,0.00732422,0.0116089,
6398,0.0146484,0.0114746,
6400,-0.022583,0.0116821,
6402,0.00671387,0.0117004,
6404,0.00671387,0.0116882,
6406,-0.00305176,0.0116577,
6408,-0.0012207,0.0116333,
6410,-0.0140381,0.011499,
6412,0.0146484,0.0115479,
6414,0.0158691,0.0114502,
6416,0,0.0112122,
6418,-0.00183105,0.0112305,
6420,-0.00976563,0.011322,
6422,-0.0286865,0.0115356,
6424,-0.00549316,0.0113098,
6426,0,0.0111206,
6428,-0.00488281,0.0108643,
6430,-0.0390625,0.0107544,
6432,-0.0323486,0.0107605,
6434,-0.0158691,0.0107849,
6436,-0.0128174,0.0107666,
6438,0.0354004,0.0109314,
6440,-0.00671387,0.0108459,
6442,-0.0213623,0.0105469,
6444,0.00976563,0.0104919,
6446,0.0164795,0.0105896,
6448,-0.0164795,0.0106873,
6450,0.00915527,0.0107056,
6452,0.00671387,0.01073,
6454,-0.0323486,0.0108887,
6456,-0.0189209,0.0109375,
6458,-0.000610352,0.0108459,
6460,-0.00244141,0.0108704,
6462,-0.00732422,0.0108826,
6464,-0.00244141,0.0108459,
6466,-0.00244141,0.0107422,
6468,0.00183105,0.0106628,
6470,0.0128174,0.0107727,
6472,0.0012207,0.0107788,
6474,-0.010376,0.0108765,
6476,-0.00366211,0.0107239,
6478,0.0238037,0.0108765,
6480,0.0128174,0.0109863,
6482,0.00671387,0.0110229,
6484,0.0140381,0.0111511,
6486,-0.0317383,0.0113403,
6488,0.00427246,0.0111084,
6490,0.00671387,0.0110962,
6492,0.0262451,0.011084,
6494,-0.0323486,0.0112488,
6496,-0.0195313,0.0113831,
6498,-0.012207,0.0114075,
6500,0.0439453,0.011792,
6502,-0.0335693,0.0119141,
6504,-0.0164795,0.0118225,
6506,-0.0012207,0.0118164,
6508,0.0012207,0.0117371,
6510,-0.0134277,0.0116028,
6512,-0.020752,0.0117981,
6514,-0.0183105,0.0117737,
6516,-0.012207,0.0117493,
6518,0.00549316,0.0117554,
6520,0.0189209,0.011792,
6522,-0.0268555,0.0119629,
6524,-0.00793457,0.0119385,
6526,0.00610352,0.0119019,
6528,0.00671387,0.011853,
6530,0.00488281,0.0117859,
6532,-0.0189209,0.0118835,
6534,-0.0152588,0.0119873,
6536,-0.0115967,0.0120117,
6538,0.000610352,0.0119019,
6540,-0.0189209,0.01203,
6542,-0.0109863,0.0121216,
6544,0.000610352,0.0121094,
6546,0.00244141,0.0120911,
6548,-0.0115967,0.0121887,
6550,-0.0268555,0.0124146,
6552,0.00610352,0.012262,
6554,0,0.0121338,
6556,-0.0305176,0.0124268,
6558,0.00427246,0.012323,
6560,-0.010376,0.012207,
6562,-0.012207,0.0122681,
6564,-0.00427246,0.0121521,
6566,-0.00305176,0.0121033,
6568,-0.000610352,0.0119629,
6570,-0.012207,0.011908,
6572,0.00976563,0.011969,
6574,0.0231934,0.0121643,
6576,0.00183105,0.012085,
6578,-0.0299072,0.0122986,
6580,-0.00244141,0.0122253,
6582,0.0317383,0.0125366,
6584,0.0354004,0.0128479,
6586,-0.0396729,0.0132446,
6588,-0.032959,0.0134583,
6590,0.0146484,0.013562,
6592,0.0164795,0.0135803,
6594,-0.0396729,0.0138367,
6596,-0.0341797,0.0141052,
6598,-0.00732422,0.014032,
6600,-0.0213623,0.0140198,
6602,-0.00183105,0.0139709,
6604,-0.0213623,0.0141174,
6606,-0.0244141,0.0143311,
6608,0.00244141,0.0143433,
6610,0.0274658,0.0144775,
6612,-0.0115967,0.014447,
6614,0.00549316,0.0143433,
6616,-0.0152588,0.0144958,
6618,-0.00244141,0.014502,
6620,-0.00915527,0.0144958,
6622,-0.0115967,0.014325,
6624,-0.0183105,0.0144531,
6626,-0.00305176,0.0144836,
6628,-0.0231934,0.0146667,
6630,-0.0170898,0.014447,
6632,-0.0109863,0.0142334,
6634,-0.00732422,0.0141479,
6636,0.0152588,0.0141724,
6638,-0.0146484,0.0139648,
6640,-0.0146484,0.0140442,
6642,0.0012207,0.0138428,
6644,-0.00366211,0.0137817,
6646,0.0012207,0.0136292,
6648,-0.00854492,0.0135498,
6650,0.00549316,0.0135132,
6652,-0.00183105,0.0134644,
6654,0.0115967,0.0132568,
6656,-0.00427246,0.0131104,
6658,-0.0280762,0.013385,
6660,0.00671387,0.0134277,
6662,-0.0012207,0.0133667,
6664,0.00854492,0.0134277,
6666,-0.0134277,0.0135376,
6668,-0.0317383,0.0138367,
6670,0.0158691,0.0138672,
6672,0.000610352,0.0138611,
6674,0.000610352,0.0137634,
6676,-0.0158691,0.0138855,
6678,0.00854492,0.0137329,
6680,0.000610352,0.0136108,
6682,-0.0158691,0.0137024,
6684,-0.00976563,0.0136597,
6686,0.00305176,0.0133728,
6688,-0.00915527,0.0134216,
6690,-0.00366211,0.0133911,
6692,0.00366211,0.0131653,
6694,-0.000610352,0.0128479,
6696,0.0268555,0.0129211,
6698,-0.00854492,0.0128845,
6700,0.00244141,0.0124695,
6702,0.0170898,0.0123047,
6704,0.00793457,0.0122192,
6706,0.00488281,0.0122559,
6708,0.00488281,0.0122925,
6710,-0.0390625,0.0125488,
6712,0.00427246,0.012384,
6714,-0.00305176,0.0122314,
6716,-0.0195313,0.0123047,
6718,-0.0238037,0.0124878,
6720,0.00427246,0.0123413,
6722,-0.0231934,0.0123047,
6724,-0.00915527,0.0123169,
6726,-0.00549316,0.0123108,
6728,-0.0152588,0.0123962,
6730,0.00976563,0.0124451,
6732,-0.00244141,0.0122803,
6734,-0.00976563,0.0122253,
6736,-0.010376,0.0122131,
6738,0.00793457,0.0122864,
6740,-0.0158691,0.0122559,
6742,0.0152588,0.0122986,
6744,-0.00427246,0.0123352,
6746,-0.0177002,0.0124878,
6748,-0.00671387,0.012439,
6750,0.0274658,0.0124451,
6752,0.0012207,0.0123962,
6754,-0.0183105,0.0125793,
6756,-0.00488281,0.012323,
6758,-0.00488281,0.0123291,
6760,0.00854492,0.0123108,
6762,0.0128174,0.0123169,
6764,-0.0195313,0.0124695,
6766,-0.0134277,0.0125732,
6768,0.0115967,0.0126831,
6770,0.0177002,0.012738,
6772,0.00244141,0.0126648,
6774,0.00427246,0.0124756,
6776,-0.00488281,0.0125061,
6778,0.0195313,0.0124023,
6780,0.0183105,0.012561,
6782,-0.0189209,0.0124329,
6784,-0.00427246,0.0121216,
6786,0.0128174,0.011853,
6788,-0.0134277,0.0116577,
6790,0.010376,0.011615,
6792,-0.0134277,0.0115845,
6794,-0.00183105,0.0112061,
6796,-0.0134277,0.0109985,
6798,-0.00793457,0.0110046,
6800,-0.010376,0.0108948,
6802,-0.0152588,0.0110291,
6804,-0.00610352,0.0108765,
6806,0.00366211,0.0106689,
6808,-0.0140381,0.0107849,
6810,-0.0201416,0.0107117,
6812,-0.00549316,0.0106506,
6814,-0.00366211,0.0106323,
6816,0.0012207,0.0104919,
6818,-0.00549316,0.0105225,
6820,-0.0213623,0.0106445,
6822,-0.0158691,0.0106873,
6824,-0.000610352,0.0105103,
6826,-0.00854492,0.0105652,
6828,-0.00793457,0.0104126,
6830,0.0152588,0.0103943,
6832,0.00366211,0.010321,
6834,0.0140381,0.0103882,
6836,-0.00793457,0.0103149,
6838,-0.00366211,0.0102051,
6840,-0.00183105,0.0100769,
6842,0.00183105,0.010083,
6844,-0.000610352,0.0100525,
6846,-0.0268555,0.0103088,
6848,-0.0128174,0.0103516,
6850,-0.00915527,0.0103882,
6852,-0.0109863,0.0104797,
6854,0.0134277,0.010498,
6856,-0.012207,0.0105774,
6858,0.00427246,0.0103394,
6860,-0.00488281,0.010321,
6862,0.00549316,0.0103638,
6864,-0.00183105,0.0102966,
6866,-0.0146484,0.0103088,
6868,-0.012207,0.0101135,
6870,0.00488281,0.0100037,
6872,0.010376,0.0101013,
6874,0.0183105,0.0102783,
6876,-0.03479,0.0104675,
6878,0.0354004,0.0107361,
6880,0.00427246,0.0107727,
6882,-0.0177002,0.010791,
6884,0.0012207,0.0107056,
6886,0.00366211,0.0107117,
6888,0.010376,0.0107239,
6890,-0.0256348,0.0109436,
6892,0.00793457,0.0109863,
6894,0.012207,0.0111023,
6896,0.00915527,0.0109253,
6898,-0.0177002,0.0110168,
6900,-0.00305176,0.0110229,
6902,-0.00976563,0.0109497,
6904,0.022583,0.0110962,
6906,-0.03479,0.0113953,
6908,-0.03479,0.0116943,
6910,-0.0195313,0.011499,
6912,0.00244141,0.0114807,
6914,-0.00549316,0.0115051,
6916,-0.00366211,0.0113464,
6918,0.0177002,0.0112854,
6920,-0.0305176,0.0115479,
6922,0.00488281,0.0113647,
6924,0.022583,0.011499,
6926,-0.0146484,0.0115906,
6928,-0.0128174,0.0115662,
6930,0.00549316,0.0115234,
6932,-0.0109863,0.0116089,
6934,0.0146484,0.0116577,
6936,-0.0305176,0.0118591,
6938,-0.0140381,0.0119202,
6940,0.00610352,0.0118225,
6942,-0.00305176,0.0117004,
6944,-0.0219727,0.0118774,
6946,-0.00305176,0.011731,
6948,0.0012207,0.011676,
6950,-0.000610352,0.0114075,
6952,-0.0177002,0.0115723,
6954,-0.00854492,0.0114746,
6956,0.0183105,0.0116089,
6958,-0.00610352,0.0116211,
6960,-0.000610352,0.0115417,
6962,-0.010376,0.0115173,
6964,0,0.011322,
6966,-0.0012207,0.0112,
6968,-0.0158691,0.0112427,
6970,-0.00366211,0.0111023,
6972,0.000610352,0.011084,
6974,-0.00671387,0.0111084,
6976,-0.00549316,0.0111145,
6978,0.0183105,0.0111023,
6980,0.00915527,0.0110107,
6982,-0.0170898,0.0109924,
6984,-0.00488281,0.0109985,
6986,0.0195313,0.0110657,
6988,0.022583,0.0111572,
6990,-0.0250244,0.0113037,
6992,-0.0170898,0.0113403,
6994,-0.00854492,0.0114075,
6996,-0.012207,0.0113953,
6998,-0.00915527,0.0114075,
7000,-0.00488281,0.0113525,
7002,-0.00671387,0.0112671,
7004,-0.0134277,0.0113403,
7006,-0.00549316,0.0113586,
7008,-0.00183105,0.0112366,
7010,-0.0183105,0.0112183,
7012,0.0250244,0.0114136,
7014,-0.00610352,0.011438,
7016,-0.0213623,0.0116394,
7018,0.00854492,0.0116699,
7020,-0.0152588,0.0116089,
7022,-0.00976563,0.0115479,
7024,0.00427246,0.0115845,
7026,0.00671387,0.0115662,
7028,-0.0177002,0.0116638,
7030,-0.00915527,0.0116028,
7032,-0.0140381,0.0117065,
7034,-0.0140381,0.0117065,
7036,-0.00854492,0.0117126,
7038,-0.00488281,0.0117249,
7040,-0.0183105,0.0118896,
7042,-0.0158691,0.01203,
7044,-0.0134277,0.0121582,
7046,-0.0183105,0.0120728,
7048,-0.00732422,0.0120178,
7050,0.00549316,0.0119812,
7052,-0.00366211,0.011908,
7054,-0.00488281,0.0118225,
7056,0.0183105,0.0118835,
7058,-0.0305176,0.012146,
7060,0.00183105,0.0121155,
7062,0.020752,0.0122681,
7064,0.00244141,0.0122742,
7066,0.00793457,0.012207,
7068,-0.0177002,0.012262,
7070,-0.0231934,0.0124451,
7072,-0.00366211,0.0123779,
7074,-0.0250244,0.0124451,
7076,-0.00976563,0.0121948,
7078,-0.0109863,0.0119507,
7080,-0.0323486,0.0122314,
7082,-0.00915527,0.012146,
7084,0.00366211,0.0121704,
7086,-0.0256348,0.0123901,
7088,-0.00244141,0.0123108,
7090,-0.010376,0.0121582,
7092,0.00244141,0.0121033,
7094,-0.0201416,0.0121826,
7096,-0.0146484,0.0122375,
7098,-0.010376,0.0121643,
7100,-0.0189209,0.012323,
7102,-0.0134277,0.0123596,
7104,-0.00671387,0.0122009,
7106,-0.00549316,0.011908,
7108,0.0109863,0.0116699,
7110,-0.0146484,0.0116211,
7112,-0.0170898,0.0117676,
7114,0.0231934,0.0119446,
7116,0.00854492,0.0119934,
7118,-0.0323486,0.0121399,
7120,0.0189209,0.0120239,
7122,0.00915527,0.0120667,
7124,-0.00305176,0.0118713,
7126,-0.0109863,0.0118347,
7128,0.00610352,0.0117676,
7130,-0.00915527,0.0118042,
7132,0.00976563,0.011792,
7134,-0.00976563,0.0117432,
7136,-0.0177002,0.011615,
7138,-0.0170898,0.0116455,
7140,0.0177002,0.0117615,
7142,-0.0360107,0.0120911,
7144,-0.0146484,0.0120178,
7146,-0.00427246,0.01203,
7148,0.00915527,0.0121094,
7150,0.00488281,0.0121521,
7152,-0.0250244,0.0122253,
7154,-0.00793457,0.0122192,
7156,0.000610352,0.0120422,
7158,-0.00488281,0.01203,
7160,-0.00854492,0.0121094,
7162,-0.0140381,0.012146,
7164,-0.0158691,0.0123047,
7166,0.000610352,0.0122986,
7168,0.00366211,0.0121765,
7170,0.000610352,0.012146,
7172,0.0250244,0.0123901,
7174,-0.0439453,0.0127625,
7176,0.0244141,0.0129517,
7178,0.00366211,0.0128052,
7180,-0.00488281,0.0127625,
7182,-0.0292969,0.0128845,
7184,0.00976563,0.0129333,
7186,-0.00488281,0.0127869,
7188,-0.010376,0.0126648,
7190,-0.00976563,0.0125122,
7192,0.00488281,0.0123901,
7194,0.0109863,0.0124146,
7196,-0.000610352,0.0122986,
7198,-0.00549316,0.012262,
7200,0,0.0122131,
7202,0.00488281,0.0121948,
7204,-0.0164795,0.0122253,
7206,0.0256348,0.0124268,
7208,-0.00915527,0.0125,
7210,-0.022583,0.0125427,
7212,0.000610352,0.0122986,
7214,-0.00488281,0.0122864,
7216,-0.0140381,0.0122131,
7218,-0.00976563,0.0122253,
7220,-0.0213623,0.0122864,
7222,-0.000610352,0.0121948,
7224,-0.00488281,0.0122009,
7226,0.00549316,0.0121887,
7228,-0.010376,0.0121155,
7230,0.0201416,0.0122253,
7232,0.0140381,0.0122253,
7234,-0.0128174,0.0122131,
7236,-0.0134277,0.012262,
7238,0.00671387,0.0122803,
7240,-0.0012207,0.0121094,
7242,-0.0244141,0.0121948,
7244,0.0115967,0.0121765,
7246,-0.0164795,0.0121582,
7248,-0.0421143,0.0125061,
7250,0.00366211,0.0124878,
7252,0.000610352,0.0124573,
7254,-0.0177002,0.0125854,
7256,-0.0183105,0.0125854,
7258,-0.00549316,0.0123352,
7260,-0.0115967,0.0124329,
7262,-0.010376,0.0123291,
7264,0.0109863,0.0124146,
7266,-0.00976563,0.0124329,
7268,-0.0012207,0.0122681,
7270,0.0274658,0.0123108,
7272,-0.0128174,0.0124023,
7274,0.0146484,0.0122986,
7276,0.00183105,0.0122192,
7278,-0.0183105,0.0122925,
7280,-0.0128174,0.0120972,
7282,-0.00366211,0.0120422,
7284,0,0.0120056,
7286,-0.0372314,0.0121216,
7288,-0.020752,0.0123047,
7290,0.00671387,0.0122681,
7292,-0.00488281,0.0122925,
7294,-0.012207,0.0122131,
7296,0.0158691,0.0122253,
7298,0.0012207,0.0121338,
7300,-0.00854492,0.01203,
7302,0.0115967,0.0120117,
7304,0.0134277,0.0120789,
7306,0.0109863,0.0121338,
7308,-0.00976563,0.0121216,
7310,-0.0128174,0.0121033,
7312,0.00488281,0.0119812,
7314,0.00366211,0.0117859,
7316,-0.022583,0.0119263,
7318,-0.020752,0.0118103,
7320,-0.0012207,0.0116333,
7322,-0.00915527,0.0116333,
7324,-0.00976563,0.0117004,
7326,-0.00671387,0.0116577,
7328,-0.0219727,0.0118164,
7330,0.0256348,0.0119812,
7332,-0.00732422,0.0119568,
7334,0.0164795,0.0120239,
7336,-0.0115967,0.0119629,
7338,0.00610352,0.011853,
7340,0.0244141,0.0119202,
7342,-0.00793457,0.0116394,
7344,-0.0238037,0.011731,
7346,0.00305176,0.0117188,
7348,-0.00427246,0.0116699,
7350,0.000610352,0.0116272,
7352,-0.0134277,0.0115112,
7354,-0.00366211,0.0114685,
7356,-0.0177002,0.0116394,
7358,-0.00976563,0.0116882,
7360,-0.00671387,0.0116699,
7362,0,0.0115295,
7364,-0.00427246,0.0114136,
7366,-0.0177002,0.0115845,
7368,-0.0183105,0.011731,
7370,-0.00183105,0.0117432,
7372,-0.00244141,0.0115173,
7374,0.00915527,0.0111694,
7376,-0.0219727,0.011145,
7378,-0.00305176,0.0111389,
7380,0.000610352,0.0110962,
7382,-0.0213623,0.0110168,
7384,-0.00366211,0.0109558,
7386,0.00610352,0.010968,
7388,-0.0219727,0.011084,
7390,-0.000610352,0.0109924,
7392,-0.00610352,0.0110046,
7394,0.000610352,0.0109009,
7396,-0.0219727,0.0111145,
7398,0.0152588,0.0112122,
7400,-0.0219727,0.0114319,
7402,0.00427246,0.0114258,
7404,-0.0170898,0.0114319,
7406,-0.0012207,0.0111877,
7408,-0.0140381,0.0112366,
7410,-0.00976563,0.0111084,
7412,0.0195313,0.0112976,
7414,-0.00366211,0.0112854,
7416,-0.0372314,0.0115173,
7418,-0.00366211,0.0114563,
7420,0.00671387,0.0113098,
7422,-0.00549316,0.0113586,
7424,-0.0140381,0.0114502,
7426,-0.010376,0.011499,
7428,0.00488281,0.0114441,
7430,0.00976563,0.0113403,
7432,-0.000610352,0.0112061,
7434,-0.00976563,0.0111755,
7436,0.00671387,0.0111084,
7438,-0.00854492,0.0111267,
7440,0.000610352,0.0111206,
7442,-0.020752,0.011084,
7444,-0.00549316,0.0110229,
7446,-0.0140381,0.0109985,
7448,-0.0134277,0.0107117,
7450,-0.00671387,0.0107422,
7452,-0.00488281,0.0107849,
7454,-0.0115967,0.0107239,
7456,-0.00488281,0.0105896,
7458,-0.00793457,0.010614,
7460,-0.0115967,0.010614,
7462,-0.00915527,0.0106018,
7464,-0.00610352,0.010553,
7466,-0.00427246,0.010498,
7468,0.00366211,0.0105225,
7470,-0.00671387,0.0103149,
7472,0,0.0101868,
7474,0.0152588,0.0101929,
7476,0.0158691,0.0103333,
7478,0.00610352,0.0102112,
7480,-0.00671387,0.0101501,
7482,0.0109863,0.0102234,
7484,-0.00671387,0.0102905,
7486,0.00732422,0.00999146,
7488,-0.0244141,0.0100281,
7490,-0.0195313,0.0101563,
7492,0.00610352,0.0101685,
7494,-0.0152588,0.010199,
7496,-0.00915527,0.0101318,
7498,-0.0183105,0.0103027,
7500,0.0109863,0.0103271,
7502,-0.0152588,0.0103638,
7504,0.0256348,0.0104858,
7506,-0.00976563,0.0104736,
7508,-0.0201416,0.0105774,
7510,0,0.0104492,
7512,0.0012207,0.0104126,
7514,-0.00854492,0.0104614,
7516,-0.010376,0.0103394,
7518,-0.0012207,0.010144,
7520,0.0012207,0.010144,
7522,-0.00488281,0.0101013,
7524,-0.00549316,0.0100586,
7526,-0.00915527,0.010083,
7528,0.00854492,0.00994873,
7530,0.00427246,0.00973511,
7532,-0.0128174,0.00979004,
7534,-0.00976563,0.0097229,
7536,-0.00671387,0.00967407,
7538,-0.00305176,0.00964355,
7540,-0.0146484,0.0095459,
7542,0.0189209,0.00965576,
7544,-0.0299072,0.0097168,
7546,0.0189209,0.00987549,
7548,-0.0250244,0.010083,
7550,-0.00427246,0.0101196,
7552,-0.00915527,0.0100769,
7554,0.00305176,0.0100708,
7556,-0.0115967,0.0100098,
7558,-0.0268555,0.0101807,
7560,-0.00427246,0.0101563,
7562,-0.0164795,0.010321,
7564,-0.00732422,0.0103516,
7566,-0.0115967,0.0102905,
7568,-0.010376,0.0102112,
7570,0,0.0101929,
7572,0.00183105,0.0101868,
7574,-0.0170898,0.0102661,
7576,0.00427246,0.0100891,
7578,-0.00488281,0.0101074,
7580,0.00976563,0.010199,
7582,-0.00244141,0.0100098,
7584,-0.0195313,0.0101685,
7586,0.00183105,0.0101257,
7588,0.0012207,0.00991821,
7590,-0.0170898,0.010083,
7592,0.00610352,0.010083,
7594,0.000610352,0.010083,
7596,0.00366211,0.0098999,
7598,-0.00305176,0.00977783,
7600,0.00732422,0.00963135,
7602,-0.012207,0.00971069,
7604,0.0262451,0.00980225,
7606,-0.00610352,0.00985107,
7608,0.0012207,0.0097229,
7610,-0.0170898,0.00979614,
7612,0.00671387,0.00966797,
7614,0.00671387,0.00969849,
7616,-0.0408936,0.00973511,
7618,-0.00427246,0.00974121,
7620,0.00671387,0.00974121,
7622,-0.0256348,0.00994263,
7624,-0.0128174,0.00993042,
7626,-0.00732422,0.0098999,
7628,-0.0195313,0.0100464,
7630,0.00244141,0.00997314,
7632,-0.00671387,0.0100342,
7634,-0.00610352,0.00999756,
7636,0.00610352,0.00999146,
7638,-0.0152588,0.0100586,
7640,-0.0164795,0.0102173,
7642,0.0238037,0.0102478,
7644,-0.00488281,0.0102417,
7646,-0.00732422,0.0101746,
7648,0.00854492,0.0101257,
7650,-0.0109863,0.0101685,
7652,0.00427246,0.0101624,
7654,-0.0109863,0.0101563,
7656,-0.00793457,0.0101868,
7658,-0.0183105,0.0102905,
7660,0.00427246,0.0102173,
7662,-0.00732422,0.010199,
7664,0.03479,0.0104858,
7666,0.0170898,0.010614,
7668,-0.0592041,0.0111694,
7670,-0.000610352,0.0111084,
7672,0.0152588,0.011261,
7674,-0.00183105,0.0111267,
7676,-0.0268555,0.0112366,
7678,-0.0372314,0.0115479,
7680,-0.03479,0.0118286,
7682,-0.0189209,0.011908,
7684,-0.0170898,0.0120117,
7686,-0.00549316,0.0119934,
7688,-0.0109863,0.0118591,
7690,-0.00366211,0.0117004,
7692,0.00854492,0.0117249,
7694,-0.00854492,0.0116577,
7696,0.000610352,0.0115723,
7698,-0.012207,0.0115112,
7700,0.0128174,0.0115295,
7702,0.0177002,0.011554,
7704,-0.00549316,0.0113525,
7706,-0.00427246,0.0112976,
7708,-0.00183105,0.0111145,
7710,0.00854492,0.0112,
7712,0.0158691,0.0113464,
7714,0.000610352,0.0112671,
7716,-0.0231934,0.0113953,
7718,-0.00488281,0.0114319,
7720,0.00549316,0.0114746,
7722,0.00488281,0.0114746,
7724,-0.00732422,0.0114929,
7726,0.00427246,0.0114441,
7728,0.00732422,0.0114319,
7730,-0.00671387,0.0114563,
7732,0.00732422,0.0114014,
7734,0.0146484,0.0114502,
7736,0.00488281,0.0114319,
7738,-0.00671387,0.0114685,
7740,-0.00793457,0.0114014,
7742,0,0.0112122,
7744,-0.0140381,0.0110535,
7746,-0.022583,0.0110901,
7748,0.000610352,0.0108459,
7750,-0.032959,0.0111328,
7752,-0.00549316,0.0110962,
7754,-0.00671387,0.0111328,
7756,0.000610352,0.0110229,
7758,-0.00183105,0.0107727,
7760,-0.0256348,0.0109863,
7762,0.012207,0.0109436,
7764,0.00976563,0.010968,
7766,-0.00488281,0.0109009,
7768,-0.00610352,0.0108582,
7770,0.0109863,0.010968,
7772,-0.0177002,0.0111267,
7774,-0.00366211,0.0109924,
7776,-0.0109863,0.0110596,
7778,0.00244141,0.0110352,
7780,-0.000610352,0.0109436,
7782,0.00183105,0.0109375,
7784,-0.0158691,0.0109009,
7786,-0.00549316,0.0109375,
7788,-0.0170898,0.0110962,
7790,0.00549316,0.0109802,
7792,0.00549316,0.0109741,
7794,-0.0238037,0.0112061,
7796,-0.00976563,0.0112671,
7798,0.00610352,0.0112976,
7800,0.0238037,0.0114624,
7802,-0.0213623,0.011554,
7804,-0.0140381,0.0114319,
7806,0.00427246,0.0114136,
7808,0.00976563,0.011499,
7810,0.00366211,0.0113647,
7812,-0.0170898,0.0114685,
7814,-0.0213623,0.011615,
7816,0.00976563,0.0113037,
7818,-0.0140381,0.0114014,
7820,-0.00549316,0.0113892,
7822,-0.0109863,0.0112427,
7824,-0.00793457,0.0111938,
7826,-0.00305176,0.0111511,
7828,-0.0170898,0.0111267,
7830,-0.0109863,0.0112122,
7832,0.0012207,0.0111572,
7834,0.00976563,0.0111938,
7836,-0.00793457,0.0112122,
7838,-0.0189209,0.0112488,
7840,0.0158691,0.0112427,
7842,0.020752,0.0112122,
7844,-0.00793457,0.0112427,
7846,-0.010376,0.0112732,
7848,-0.00305176,0.0112183,
7850,-0.012207,0.0112305,
7852,-0.00732422,0.011261,
7854,0.0012207,0.0111633,
7856,-0.0219727,0.0113037,
7858,-0.00549316,0.0111755,
7860,0.00915527,0.0112244,
7862,0.0317383,0.0114685,
7864,-0.0317383,0.011438,
7866,-0.0115967,0.0113831,
7868,0.0177002,0.010968,
7870,-0.000610352,0.010968,
7872,-0.00793457,0.0108948,
7874,-0.00793457,0.0109558,
7876,-0.00244141,0.0107117,
7878,-0.00366211,0.010376,
7880,-0.00671387,0.0100952,
7882,-0.0109863,0.0100159,
7884,-0.00549316,0.0098999,
7886,-0.0012207,0.00985718,
7888,-0.0140381,0.0098877,
7890,-0.00915527,0.00994263,
7892,-0.0183105,0.0100403,
7894,-0.0140381,0.0100952,
7896,-0.00976563,0.0101868,
7898,-0.0183105,0.0102478,
7900,0.00488281,0.0101685,
7902,0,0.00999146,
7904,-0.0128174,0.0100647,
7906,-0.000610352,0.0100281,
7908,0.020752,0.0102173,
7910,-0.0164795,0.0102966,
7912,-0.00732422,0.0102112,
7914,0.00366211,0.0102417,
7916,0.00305176,0.0100403,
7918,-0.00183105,0.0100098,
7920,-0.0115967,0.0100708,
7922,0.0292969,0.0103149,
7924,-0.0213623,0.0104553,
7926,-0.0134277,0.0105469,
7928,-0.0170898,0.0106445,
7930,0.00976563,0.010675,
7932,0.0140381,0.0107422,
7934,-0.0268555,0.0108643,
7936,-0.0378418,0.0111938,
7938,-0.00366211,0.0111633,
7940,-0.00488281,0.0111328,
7942,-0.00793457,0.0112122,
7944,-0.0219727,0.0112915,
7946,-0.00915527,0.0111572,
7948,-0.010376,0.0112549,
7950,-0.0201416,0.0111267,
7952,0.010376,0.0111755,
7954,-0.012207,0.0112305,
7956,-0.00976563,0.011322,
7958,-0.0152588,0.0114563,
7960,-0.00671387,0.0112671,
7962,0.000610352,0.0111511,
7964,-0.0152588,0.0112061,
7966,-0.00793457,0.0112366,
7968,0.00610352,0.0112366,
7970,-0.0189209,0.0113159,
7972,0.0128174,0.0112671,
7974,-0.0238037,0.0114685,
7976,0.0012207,0.0113708,
7978,0.00427246,0.0113892,
7980,-0.0256348,0.0116394,
7982,0.00976563,0.0117188,
7984,-0.00488281,0.0116089,
7986,-0.00488281,0.0116028,
7988,-0.00549316,0.0114868,
7990,0.00183105,0.0114502,
7992,0.00244141,0.0114197,
7994,-0.00366211,0.0112183,
7996,-0.00793457,0.0112,
7998,0.00366211,0.0111755,
8000,0.0152588,0.0110901,
8002,-0.012207,0.0109985,
8004,-0.0177002,0.0110352,
8006,-0.00610352,0.0110535,
8008,-0.0177002,0.0111328,
8010,0,0.0110962,
8012,0,0.0109253,
8014,0.012207,0.0108337,
8016,-0.0384521,0.0111206,
8018,-0.0219727,0.0112,
8020,0.00915527,0.0112366,
8022,0.0115967,0.0112427,
8024,-0.0134277,0.0112976,
8026,-0.0128174,0.0113953,
8028,-0.00854492,0.0113098,
8030,0.00549316,0.0112549,
8032,-0.0201416,0.0114441,
8034,-0.00244141,0.0113708,
8036,0.012207,0.0114136,
8038,-0.012207,0.0113464,
8040,-0.0109863,0.0112976,
8042,0.012207,0.0112122,
8044,-0.00488281,0.0111816,
8046,-0.0012207,0.0110901,
8048,-0.0109863,0.0111694,
8050,-0.0115967,0.0111633,
8052,-0.00854492,0.0111755,
8054,-0.00732422,0.0112366,
8056,-0.00793457,0.0110962,
8058,0.00549316,0.0110962,
8060,-0.0134277,0.0111389,
8062,-0.0189209,0.0110107,
8064,0.0360107,0.0110535,
8066,0.0341797,0.0112793,
8068,0.00305176,0.0111328,
8070,-0.03479,0.0114746,
8072,-0.00488281,0.0114441,
8074,0.00366211,0.0114014,
8076,-0.00671387,0.0114441,
8078,-0.0146484,0.011554,
8080,-0.0366211,0.011853,
8082,-0.0189209,0.0119324,
8084,-0.010376,0.0119812,
8086,0.00244141,0.0119934,
8088,-0.00732422,0.0119263,
8090,-0.0164795,0.0119995,
8092,0.00671387,0.0118835,
8094,-0.00854492,0.0118286,
8096,-0.00549316,0.0117859,
8098,0.00183105,0.0116211,
8100,-0.0140381,0.0117126,
8102,-0.000610352,0.0117188,
8104,-0.00305176,0.0116211,
8106,-0.00671387,0.0116821,
8108,-0.00915527,0.0115662,
8110,0.012207,0.0115234,
8112,-0.00793457,0.0115295,
8114,-0.0109863,0.0116028,
8116,-0.00427246,0.011615,
8118,-0.00427246,0.0116394,
8120,-0.0128174,0.0116516,
8122,-0.0177002,0.0115356,
8124,0.00183105,0.0113403,
8126,-0.00610352,0.0112671,
8128,-0.00671387,0.0111633,
8130,0.00732422,0.0111389,
8132,0.0115967,0.0111145,
8134,0.00366211,0.0108826,
8136,0.0158691,0.0106628,
8138,0.0366211,0.0109924,
8140,0.0012207,0.0109558,
8142,-0.00976563,0.0109741,
8144,0.0744629,0.011499,
8146,-0.067749,0.012085,
8148,-0.0189209,0.0121704,
8150,0.0195313,0.0121643,
8152,-0.0323486,0.012384,
8154,-0.0195313,0.0124573,
8156,0.0012207,0.0123718,
8158,-0.0256348,0.0124756,
8160,-0.00976563,0.0125061,
8162,0.0158691,0.0126587,
8164,-0.00427246,0.0125488,
8166,-0.00793457,0.0125488,
8168,0.00793457,0.0125671,
8170,-0.0146484,0.0125244,
8172,0.0109863,0.0125061,
8174,-0.00488281,0.0123169,
8176,-0.020752,0.0125122,
8178,0.00671387,0.0125366,
8180,-0.00610352,0.0123413,
8182,-0.0158691,0.0124023,
8184,0.0109863,0.0124634,
8186,-0.0109863,0.0125244,
8188,-0.00427246,0.0125122,
8190,0.00732422,0.0125671,
8192,-0.022583,0.0127686,
8194,-0.010376,0.0128357,
8196,0.00183105,0.0127747,
8198,-0.0012207,0.0127502,
8200,-0.010376,0.0127014,
8202,-0.0274658,0.012854,
8204,-0.0128174,0.0128052,
8206,-0.0128174,0.0128723,
8208,-0.00854492,0.0127808,
8210,0.012207,0.0129028,
8212,-0.0152588,0.0130554,
8214,0,0.0129333,
8216,0.00183105,0.0125671,
8218,-0.00549316,0.0124023,
8220,-0.00183105,0.0123291,
8222,-0.00549316,0.0122681,
8224,-0.0158691,0.0122925,
8226,0,0.0121643,
8228,-0.00976563,0.0121765,
8230,0.00793457,0.0122009,
8232,0.00976563,0.0120972,
8234,-0.0244141,0.0123169,
8236,-0.00488281,0.0122437,
8238,0.00671387,0.0121887,
8240,-0.00305176,0.0121094,
8242,0.0012207,0.0119995,
8244,-0.0195313,0.012146,
8246,0.00610352,0.0121948,
8248,-0.00915527,0.0121765,
8250,-0.00366211,0.0120972,
8252,-0.0152588,0.0121643,
8254,0.00549316,0.012146,
8256,0.0012207,0.0120789,
8258,-0.0012207,0.0120361,
8260,-0.020752,0.0121094,
8262,0.00427246,0.0119629,
8264,-0.00427246,0.0116455,
8266,0.00244141,0.0113281,
8268,0.00854492,0.0113831,
8270,-0.0128174,0.0111633,
8272,-0.00610352,0.0111755,
8274,0.00366211,0.0111755,
8276,-0.0109863,0.0112183,
8278,-0.0109863,0.0111816,
8280,0.00671387,0.0108826,
8282,-0.00488281,0.0107422,
8284,-0.00610352,0.0106995,
8286,0,0.010675,
8288,0.0134277,0.0107361,
8290,-0.0250244,0.0108215,
8292,-0.00244141,0.0107788,
8294,-0.0195313,0.0108887,
8296,-0.0231934,0.0110657,
8298,0.00854492,0.0111328,
8300,-0.0146484,0.0111389,
8302,-0.010376,0.0112366,
8304,-0.000610352,0.0112122,
8306,-0.0164795,0.0113098,
8308,0.0341797,0.0115601,
8310,0.0183105,0.0116211,
8312,-0.010376,0.0116455,
8314,-0.020752,0.0117432,
8316,0.00488281,0.0117493,
8318,0.00244141,0.011731,
8320,-0.010376,0.0117065,
8322,-0.0286865,0.0118164,
8324,-0.0201416,0.0119995,
8326,-0.00976563,0.0120361,
8328,0.00244141,0.0119934,
8330,0.000610352,0.0119263,
8332,-0.0177002,0.0119873,
8334,-0.0183105,0.0121338,
8336,-0.00244141,0.0119995,
8338,0.0012207,0.0116455,
8340,-0.010376,0.0117371,
8342,-0.010376,0.0117432,
8344,-0.00549316,0.0110535,
8346,0.00366211,0.0104126,
8348,-0.00793457,0.0103027,
8350,-0.000610352,0.0101135,
8352,-0.00366211,0.00982666,
8354,0.0164795,0.00979614,
8356,-0.0219727,0.0100037,
8358,0.00366211,0.00978394,
8360,0.00732422,0.00975952,
8362,-0.00488281,0.00964966,
8364,-0.00610352,0.00966797,
8366,-0.00244141,0.00961304,
8368,0.00976563,0.00963135,
8370,-0.0219727,0.00970459,
8372,-0.012207,0.0097168,
8374,-0.00366211,0.00970459,
8376,-0.00427246,0.00953979,
8378,-0.0189209,0.00966187,
8380,-0.0128174,0.009729,
8382,0.00915527,0.00966187,
8384,-0.0109863,0.00966187,
8386,-0.00305176,0.00958252,
8388,0.00732422,0.00961304,
8390,-0.0219727,0.00975952,
8392,-0.0128174,0.00966187,
8394,0.00793457,0.00963745,
8396,0.0012207,0.00963135,
8398,-0.0256348,0.00987549,
8400,-0.0213623,0.00998535,
8402,0.00610352,0.00977173,
8404,0.0158691,0.00980225,
8406,0.000610352,0.00968018,
8408,0.00427246,0.00963745,
8410,-0.0146484,0.00966187,
8412,0.00854492,0.00959473,
8414,0.000610352,0.00960083,
8416,-0.00671387,0.00964966,
8418,-0.0115967,0.00971069,
8420,-0.00244141,0.0097168,
8422,-0.00610352,0.0097229,
8424,-0.0244141,0.00980835,
8426,-0.00183105,0.00982666,
8428,0.00244141,0.00975342,
8430,-0.0140381,0.00981445,
8432,-0.00549316,0.00977173,
8434,-0.0115967,0.00964355,
8436,0.00915527,0.00968628,
8438,-0.00366211,0.00965576,
8440,0.000610352,0.00963135,
8442,-0.00732422,0.00969238,
8444,-0.00183105,0.00951538,
8446,0.00183105,0.00947266,
8448,-0.00488281,0.00942993,
8450,-0.00488281,0.00944214,
8452,-0.0128174,0.00941772,
8454,-0.00671387,0.00942993,
8456,0.00366211,0.00945435,
8458,-0.0146484,0.00958862,
8460,0.000610352,0.00938721,
8462,0.0109863,0.00945435,
8464,-0.0109863,0.00952148,
8466,-0.0109863,0.00960693,
8468,-0.0109863,0.00963135,
8470,0.0109863,0.00961304,
8472,-0.0109863,0.00966187,
8474,-0.0360107,0.00998535,
8476,-0.00854492,0.00996094,
8478,-0.00427246,0.0098938,
8480,0,0.00982666,
8482,-0.00854492,0.00986328,
